encoder,seconds,current (A),charge (C)
2030.0,0.35299999999999998,0.63670000000000004,0.22475510000000001
2101.0,0.35999999999999999,0.84520000000000006,0.30427199999999999
2174.0,0.36699999999999999,1.2297,0.45129989999999998
2248.0,0.373,0.91120000000000001,0.3398776
2324.0,0.38,1.5599000000000001,0.59276200000000001
2402.0,0.38600000000000001,1.5899000000000001,0.61370140000000006
2480.0,0.39200000000000002,0.46329999999999999,0.18161360000000001
2561.0,0.39900000000000002,0.34200000000000003,0.13645800000000002
2643.0,0.40600000000000003,1.7755000000000001,0.72085300000000008
2728.0,0.41199999999999998,1.8735999999999999,0.77192319999999992
2813.0,0.41899999999999998,0.0567,0.023757299999999999
2900.0,0.42499999999999999,0.034599999999999999,0.014704999999999999
2989.0,0.43099999999999999,0.022600000000000002,0.0097406000000000003
3078.0,0.438,1.4105999999999999,0.61784279999999991
3168.0,0.44500000000000001,1.4882,0.66224899999999998
3258.0,0.45100000000000001,0.061600000000000002,0.0277816
3346.0,0.45800000000000002,0.1103,0.050517399999999997
3435.0,0.46400000000000002,1.173,0.54427200000000009
3523.0,0.46999999999999997,1.0449000000000002,0.49110300000000007
3610.0,0.47699999999999998,1.1274999999999999,0.53781749999999995
3698.0,0.48299999999999998,0.92689999999999995,0.44769269999999994
3786.0,0.49099999999999999,1.2081999999999999,0.59322619999999993
3874.0,0.497,0.66100000000000003,0.328517
3963.0,0.503,0.47560000000000002,0.23922680000000002
4052.0,0.51000000000000001,1.6139000000000001,0.82308900000000007
4141.0,0.51600000000000001,1.7357,0.89562120000000001
4230.0,0.52200000000000002,1.7514000000000001,0.91423080000000012
4318.0,0.53000000000000003,0.10890000000000001,0.057717000000000011
4407.0,0.53600000000000003,0.081200000000000008,0.043523200000000005
4496.0,0.54200000000000004,1.7669999999999999,0.95771400000000007
4586.0,0.54900000000000004,1.5018,0.82448820000000012
4675.0,0.55500000000000005,0.029399999999999999,0.016317000000000002
4763.0,0.56100000000000005,0.037499999999999999,0.021037500000000001
4851.0,0.56799999999999995,0.0533,0.030274399999999996
4939.0,0.57499999999999996,1.2492000000000001,0.71828999999999998
5028.0,0.58099999999999996,1.2353000000000001,0.71770929999999999
5116.0,0.58799999999999997,0.4773,0.28065239999999997
5206.0,0.59399999999999997,0.69089999999999996,0.41039459999999994
5296.0,0.59999999999999998,0.99729999999999996,0.59837999999999991
5387.0,0.60699999999999998,0.8257000000000001,0.50119990000000003
5479.0,0.61299999999999999,0.76079999999999992,0.46637039999999996
5571.0,0.621,1.5788,0.98043479999999994
5664.0,0.627,1.9254,1.2072258
5758.0,0.63300000000000001,0.35819999999999996,0.22674059999999999
5852.0,0.64000000000000001,0.28599999999999998,0.18303999999999998
5947.0,0.64600000000000002,1.7890999999999999,1.1557586
6042.0,0.65200000000000002,1.8560999999999999,1.2101772
6137.0,0.66000000000000003,1.8169999999999999,1.19922
6231.0,0.66600000000000004,0.0263,0.017515800000000002
6327.0,0.67200000000000004,0.026699999999999998,0.017942400000000001
6424.0,0.67900000000000005,1.4777,1.0033583000000001
6519.0,0.68500000000000005,1.4890000000000001,1.0199650000000002
6618.0,0.69099999999999995,0.099000000000000005,0.068408999999999998
6717.0,0.69799999999999995,0.17949999999999999,0.12529099999999999
6818.0,0.70499999999999996,0.42469999999999997,0.29941349999999994
6918.0,0.71099999999999997,0.97310000000000008,0.69187410000000005
7021.0,0.71799999999999997,1.0123,0.72683139999999991
7124.0,0.72399999999999998,1.0183,0.73724919999999994
7227.0,0.73099999999999998,1.4100999999999999,1.0307830999999998
7331.0,0.73699999999999999,0.55100000000000005,0.40608700000000003
7436.0,0.74399999999999999,0.45860000000000001,0.34119840000000001
7540.0,0.751,1.7864,1.3415864
7646.0,0.75700000000000001,1.8527,1.4024939000000001
7754.0,0.76300000000000001,0.14130000000000001,0.1078119
7865.0,0.77000000000000002,0.058400000000000001,0.044968000000000001
7975.0,0.77600000000000002,0.042500000000000003,0.032980000000000002
8089.0,0.78300000000000003,1.3384,1.0479672
8199.0,0.79000000000000004,1.4132,1.116428
8314.0,0.79600000000000004,0.031800000000000002,0.025312800000000003
8434.0,0.80300000000000005,0.042500000000000003,0.034127500000000005
8555.0,0.80900000000000005,1.0284,0.83197560000000004
8671.0,0.81599999999999995,0.96589999999999998,0.78817439999999994
8791.0,0.82199999999999995,0.35210000000000002,0.28942620000000002
8912.0,0.82899999999999996,0.50449999999999995,0.41823049999999995
9033.0,0.83599999999999997,0.70099999999999996,0.58603599999999989
9153.0,0.84199999999999997,0.98920000000000008,0.83290640000000005
9274.0,0.84899999999999998,1.1440999999999999,0.97134089999999984
9389.0,0.85499999999999998,1.4025000000000001,1.1991375
9502.0,0.86099999999999999,0.37119999999999997,0.31960319999999998
9616.0,0.86799999999999999,0.26619999999999999,0.23106159999999998
9724.0,0.875,0.23380000000000001,0.20457500000000001
9832.0,0.88100000000000001,1.6815,1.4814015
9935.0,0.88700000000000001,1.8244,1.6182428
10036.0,0.89300000000000002,1.6922999999999999,1.5112238999999998
10142.0,0.90000000000000002,1.5866,1.42794
10246.0,0.90600000000000003,0.0269,0.024371400000000001
10350.0,0.91200000000000003,0.031300000000000001,0.028545600000000001
10454.0,0.92000000000000004,1.5309999999999999,1.40852
10560.0,0.92600000000000005,1.3813,1.2790838
10666.0,0.93200000000000005,1.1904999999999999,1.1095459999999999
10774.0,0.93899999999999995,0.33510000000000001,0.31465889999999996
10883.0,0.94499999999999995,0.5282,0.49914899999999995
10993.0,0.95099999999999996,1.0670999999999999,1.0148120999999999
11106.0,0.95899999999999996,0.84939999999999993,0.81457459999999993
11219.0,0.96499999999999997,1.1405000000000001,1.1005825
11332.0,0.97099999999999997,1.3057999999999998,1.2679317999999997
11447.0,0.97799999999999998,0.40310000000000001,0.39423180000000002
11562.0,0.98399999999999999,0.3256,0.32039040000000002
11676.0,0.99099999999999999,0.25839999999999996,0.25607439999999998
11791.0,0.997,1.7710999999999999,1.7657866999999998
11905.0,1.004,1.6075999999999999,1.6140303999999999
12018.0,1.0109999999999999,0.053700000000000005,0.054290699999999997
12132.0,1.0169999999999999,0.031100000000000003,0.031628700000000003
12244.0,1.0229999999999999,0.022600000000000002,0.023119799999999999
12357.0,1.03,1.2630999999999999,1.3009929999999998
12470.0,1.036,1.3468,1.3952848
12581.0,1.0429999999999999,0.058799999999999998,0.061328399999999991
12694.0,1.05,0.10199999999999999,0.1071
12807.0,1.056,0.99790000000000001,1.0537824
12918.0,1.0620000000000001,1.0168999999999999,1.0799478
13031.0,1.069,0.81320000000000003,0.86931080000000005
13142.0,1.075,0.90860000000000007,0.97674500000000009
13251.0,1.081,1.0389999999999999,1.1231589999999998
13359.0,1.089,0.6159,0.67071510000000001
13466.0,1.095,0.4733,0.51826349999999999
13572.0,1.101,0.3725,0.4101225
13678.0,1.1080000000000001,1.8880999999999999,2.0920147999999998
13782.0,1.1140000000000001,1.7335999999999998,1.9312304
13887.0,1.1200000000000001,0.1477,0.16542400000000002
13992.0,1.1279999999999999,0.079899999999999999,0.090127199999999991
14096.0,1.1339999999999999,0.047799999999999995,0.054205199999999988
14200.0,1.1399999999999999,1.5717000000000001,1.7917380000000001
14305.0,1.147,1.5512000000000001,1.7792264000000002
14411.0,1.153,0.035200000000000002,0.040585600000000006
14515.0,1.159,0.054200000000000005,0.062817800000000007
14620.0,1.1659999999999999,1.2975999999999999,1.5130015999999997
14725.0,1.173,1.3429,1.5752216999999999
14830.0,1.1799999999999999,0.44969999999999999,0.53064599999999995
14933.0,1.1859999999999999,0.6865,0.81418899999999994
15037.0,1.1919999999999999,0.99539999999999995,1.1865167999999999
15139.0,1.1990000000000001,0.92420000000000002,1.1081158
15242.0,1.2050000000000001,0.80489999999999995,0.96990449999999995
15345.0,1.2110000000000001,1.6289,1.9725979000000002
15448.0,1.2190000000000001,1.8980999999999999,2.3137839000000002
15552.0,1.2250000000000001,0.36699999999999999,0.449575
15656.0,1.2310000000000001,0.30939999999999995,0.38087139999999997
15760.0,1.238,0.17760000000000001,0.2198688
15866.0,1.244,1.9309000000000001,2.4020396000000002
15972.0,1.25,1.7081999999999999,2.1352500000000001
16078.0,1.258,0.025399999999999999,0.031953200000000001
16186.0,1.264,0.0241,0.030462400000000001
16293.0,1.27,1.4744000000000002,1.8724880000000002
16399.0,1.2769999999999999,1.4062000000000001,1.7957174
16506.0,1.2829999999999999,1.524,1.9552919999999998
16612.0,1.2889999999999999,0.1641,0.21152489999999999
16717.0,1.296,0.40329999999999999,0.52267680000000005
16821.0,1.3029999999999999,1.034,1.347302
16926.0,1.3089999999999999,1.02,1.33518
17028.0,1.3160000000000001,0.9778,1.2867848
17130.0,1.3220000000000001,1.3406,1.7722732000000001
17232.0,1.3280000000000001,1.5309999999999999,2.0331679999999999
17335.0,1.335,0.51279999999999992,0.68458799999999986
17437.0,1.3420000000000001,0.38430000000000003,0.51573060000000004
17539.0,1.349,1.9438,2.6221861999999998
17642.0,1.355,1.7867,2.4209784999999999
17745.0,1.361,0.12359999999999999,0.16821959999999997
17850.0,1.3680000000000001,0.0567,0.077565600000000012
17954.0,1.3740000000000001,0.031199999999999999,0.042868799999999999
18060.0,1.3799999999999999,1.4799,2.042262
18165.0,1.3879999999999999,1.4547000000000001,2.0191235999999999

