encoder,seconds,current (A),charge (C)
2003.0,0.27400000000000002,1.6411,0.44966140000000004
2083.0,0.28100000000000003,0.043400000000000001,0.012195400000000002
2161.0,0.28799999999999998,1.5771999999999999,0.45423359999999996
2240.0,0.29599999999999999,1.5782,0.46714719999999998
2317.0,0.30299999999999999,0.4148,0.1256844
2394.0,0.31,1.3443000000000001,0.41673300000000002
2469.0,0.317,0.78760000000000008,0.24966920000000004
2543.0,0.32400000000000001,1.2419,0.4023756
2618.0,0.33100000000000002,1.3002,0.43036620000000003
2692.0,0.34000000000000002,1.4790000000000001,0.50286000000000008
2766.0,0.34699999999999998,0.73970000000000002,0.25667590000000001
2839.0,0.35399999999999998,1.7963,0.63589019999999996
2911.0,0.36099999999999999,0.53300000000000003,0.192413
2984.0,0.36799999999999999,1.9950000000000001,0.73416000000000003
3058.0,0.375,2.0057,0.75213750000000001
3133.0,0.38300000000000001,0.1769,0.067752699999999999
3207.0,0.39000000000000001,1.7645999999999999,0.68819399999999997
3284.0,0.39700000000000002,0.028000000000000001,0.011116000000000001
3361.0,0.40500000000000003,1.7677,0.71591850000000001
3439.0,0.41199999999999998,1.6719000000000002,0.68882280000000007
3518.0,0.41999999999999998,0.0448,0.018815999999999999
3598.0,0.42699999999999999,1.6335999999999999,0.69754719999999992
3679.0,0.434,0.14709999999999998,0.063841399999999993
3760.0,0.441,1.4289000000000001,0.63014490000000001
3843.0,0.44800000000000001,1.3734000000000002,0.61528320000000014
3927.0,0.45500000000000002,0.76939999999999997,0.35007700000000003
4011.0,0.46300000000000002,1.2147000000000001,0.56240610000000013
4096.0,0.47099999999999997,1.0951,0.51579209999999998
4181.0,0.47799999999999998,0.87809999999999999,0.41973179999999999
4268.0,0.48499999999999999,0.72170000000000001,0.35002450000000002
4357.0,0.49199999999999999,1.8120000000000001,0.89150399999999996
4446.0,0.499,0.45450000000000002,0.22679550000000001
4537.0,0.50700000000000001,1.8329000000000002,0.92928030000000006
4629.0,0.51400000000000001,0.2495,0.128243
4723.0,0.52100000000000002,0.13250000000000001,0.069032500000000011
4818.0,0.52800000000000002,1.7942,0.9473376
4913.0,0.53600000000000003,0.025999999999999999,0.013936
5011.0,0.54300000000000004,1.6722000000000001,0.90800460000000016
5109.0,0.55100000000000005,0.0332,0.018293200000000003
5208.0,0.55800000000000005,0.043099999999999999,0.024049800000000003
5308.0,0.56499999999999995,1.3259000000000001,0.74913350000000001
5409.0,0.57199999999999995,0.13489999999999999,0.07716279999999999
5511.0,0.57899999999999996,1.2252000000000001,0.70939079999999999
5614.0,0.58599999999999997,0.49960000000000004,0.29276560000000001
5718.0,0.59499999999999997,0.77160000000000006,0.45910200000000001
5824.0,0.60199999999999998,0.95240000000000002,0.57334479999999999
5929.0,0.60899999999999999,1.1815,0.71953349999999994
6036.0,0.61599999999999999,0.73639999999999994,0.45362239999999998
6142.0,0.623,1.5845,0.98714350000000006
6248.0,0.63,1.6960999999999999,1.068543
6352.0,0.63800000000000001,0.37439999999999996,0.23886719999999997
6457.0,0.64500000000000002,1.8639000000000001,1.2022155000000001
6562.0,0.65200000000000002,0.1822,0.11879440000000001
6665.0,0.66000000000000003,1.9474,1.2852840000000001
6769.0,0.66700000000000004,0.066500000000000004,0.044355500000000006
6872.0,0.67400000000000004,0.022499999999999999,0.015165
6975.0,0.68200000000000005,1.5662,1.0681484000000001
7076.0,0.68899999999999995,0.031899999999999998,0.021979099999999998
7176.0,0.69599999999999995,1.4638,1.0188047999999998
7273.0,0.70299999999999996,0.074999999999999997,0.052724999999999994
7371.0,0.70999999999999996,0.158,0.11218
7465.0,0.71699999999999997,1.2483,0.89503109999999997
7557.0,0.72499999999999998,0.61550000000000005,0.44623750000000001
7647.0,0.73299999999999998,1.2374000000000001,0.90701419999999999
7735.0,0.73999999999999999,0.96150000000000002,0.71150999999999998
7821.0,0.747,1.0377000000000001,0.77516190000000007
7908.0,0.754,0.95629999999999993,0.72105019999999997
7992.0,0.76200000000000001,1.5484,1.1798808000000001
8077.0,0.76900000000000002,0.61499999999999999,0.47293499999999999
8159.0,0.77600000000000002,1.9590000000000001,1.5201840000000002
8242.0,0.78300000000000003,0.34139999999999998,0.2673162
8324.0,0.79000000000000004,2.0806999999999998,1.6437529999999998
8403.0,0.79700000000000004,1.7515000000000001,1.3959455000000001
8481.0,0.80600000000000005,0.072999999999999995,0.058838000000000001
8556.0,0.81299999999999994,1.8437000000000001,1.4989281000000001
8632.0,0.81999999999999995,0.027,0.02214
8708.0,0.82699999999999996,1.7055,1.4104485
8783.0,0.83399999999999996,1.5197000000000001,1.2674297999999999
8857.0,0.84099999999999997,0.080399999999999999,0.067616399999999993
8930.0,0.84899999999999998,1.5982000000000001,1.3568718
9005.0,0.85599999999999998,0.38250000000000001,0.32741999999999999
9078.0,0.86299999999999999,1.5389999999999999,1.3281569999999998
9152.0,0.87,1.2397,1.0785389999999999
9226.0,0.878,1.1147,0.97870659999999998
9300.0,0.88500000000000001,1.1231,0.99394349999999998
9375.0,0.89300000000000002,1.4823,1.3236939000000001
9449.0,0.90000000000000002,0.79000000000000004,0.71100000000000008
9524.0,0.90700000000000003,1.8729,1.6987203
9600.0,0.91400000000000003,1.9302000000000001,1.7642028000000003
9675.0,0.92100000000000004,0.34910000000000002,0.32152110000000006
9751.0,0.92800000000000005,1.8947000000000001,1.7582816000000001
9827.0,0.93600000000000005,0.15930000000000002,0.14910480000000004
9903.0,0.94399999999999995,1.9512,1.8419327999999999
9981.0,0.95099999999999996,1.946,1.8506459999999998
10059.0,0.95799999999999996,0.0252,0.024141599999999999
10137.0,0.96499999999999997,1.5710999999999999,1.5161114999999998
10214.0,0.97199999999999998,0.044600000000000001,0.043351199999999999
10292.0,0.97999999999999998,1.5926,1.560748
10371.0,0.98699999999999999,0.1656,0.16344719999999999
10450.0,0.99399999999999999,0.37739999999999996,0.37513559999999996
10529.0,1.0009999999999999,1.3645999999999998,1.3659645999999996
10609.0,1.0089999999999999,0.78979999999999995,0.79690819999999984
10690.0,1.0169999999999999,1.0540999999999998,1.0720196999999998
10771.0,1.024,1.2809000000000001,1.3116416000000002
10852.0,1.0309999999999999,1.4405999999999999,1.4852585999999997
10931.0,1.038,0.59870000000000001,0.62145060000000008
11012.0,1.0449999999999999,1.7412000000000001,1.8195539999999999
11092.0,1.052,0.48480000000000001,0.51000960000000006
11173.0,1.0600000000000001,2.0249999999999999,2.1465000000000001
11254.0,1.0669999999999999,0.24109999999999998,0.25725369999999997
11334.0,1.075,0.12869999999999998,0.13835249999999996
11417.0,1.0820000000000001,1.6054000000000002,1.7370428000000002
11501.0,1.089,0.0218,0.023740199999999999
11586.0,1.0960000000000001,1.6574,1.8165104000000001
11672.0,1.1040000000000001,0.031899999999999998,0.035217600000000002
11761.0,1.111,0.046100000000000002,0.051217100000000002
11848.0,1.1180000000000001,1.3025,1.4561950000000001
11937.0,1.125,0.16300000000000001,0.18337500000000001
12027.0,1.133,1.2475000000000001,1.4134175
12115.0,1.1399999999999999,0.5262,0.59986799999999996
12202.0,1.1479999999999999,0.8337,0.95708759999999993
12290.0,1.155,0.99020000000000008,1.1436810000000002
12376.0,1.1619999999999999,1.1435,1.3287469999999999
12461.0,1.169,0.84699999999999998,0.990143
12546.0,1.1759999999999999,1.7327000000000001,2.0376552000000001
12631.0,1.1830000000000001,1.7744000000000002,2.0991152000000004
12716.0,1.1910000000000001,0.46089999999999998,0.54893190000000003
12800.0,1.198,2.0646999999999998,2.4735105999999996
12885.0,1.206,0.2097,0.25289819999999996
12968.0,1.2130000000000001,1.6765000000000001,2.0335945000000004
13052.0,1.22,0.0683,0.083325999999999997
13135.0,1.2270000000000001,0.020899999999999998,0.025644299999999998
13220.0,1.2350000000000001,1.7210999999999999,2.1255584999999999
13303.0,1.242,0.030899999999999997,0.038377799999999997
13386.0,1.2490000000000001,1.4925999999999999,1.8642574000000001
13468.0,1.256,0.078299999999999995,0.098344799999999996
13550.0,1.2629999999999999,0.17999999999999999,0.22733999999999999
13630.0,1.2709999999999999,1.3222,1.6805162
13710.0,1.2789999999999999,0.58129999999999993,0.74348269999999983
13788.0,1.286,1.2559,1.6150874
13866.0,1.2929999999999999,1.0831,1.4004482999999999
13942.0,1.3,1.3123,1.7059900000000001
14018.0,1.3069999999999999,0.873,1.141011
14093.0,1.3140000000000001,1.7332000000000001,2.2774248000000004
14168.0,1.3220000000000001,0.60509999999999997,0.79994220000000005
14241.0,1.329,1.9552,2.5984607999999998
14315.0,1.3360000000000001,0.3821,0.51048559999999998
14387.0,1.3440000000000001,0.24819999999999998,0.33358080000000001
14459.0,1.351,1.8902999999999999,2.5537953
14531.0,1.359,0.069900000000000004,0.094994099999999998
14601.0,1.3660000000000001,1.9772000000000001,2.7008552000000003
14672.0,1.373,0.026800000000000001,0.0367964
14743.0,1.3799999999999999,0.0378,0.052163999999999995
14814.0,1.387,1.5326,2.1257161999999998
14884.0,1.3939999999999999,0.085300000000000001,0.11890819999999999
14953.0,1.4019999999999999,1.5447,2.1656693999999996
15021.0,1.4099999999999999,0.44489999999999996,0.62730899999999989
15089.0,1.417,1.6740999999999999,2.3721996999999999
15157.0,1.4239999999999999,1.4076,2.0044223999999997
15224.0,1.431,1.1967999999999999,1.7126207999999998
15292.0,1.4379999999999999,1.1769000000000001,1.6923821999999999
15359.0,1.446,1.7242,2.4931931999999999
15427.0,1.4530000000000001,0.79720000000000002,1.1583316000000001
15494.0,1.46,0.67989999999999995,0.99265399999999993
15560.0,1.4670000000000001,1.9843,2.9109681000000003
15628.0,1.4750000000000001,0.43489999999999995,0.64147749999999992
15695.0,1.482,2.1351,3.1642182000000001
15763.0,1.49,0.1792,0.26700800000000002
15831.0,1.4970000000000001,0.072300000000000003,0.10823310000000001
15899.0,1.504,2.0192000000000001,3.0368768000000004
15968.0,1.5109999999999999,0.027300000000000001,0.041250299999999997
16038.0,1.518,1.744,2.647392
16107.0,1.5249999999999999,0.052899999999999996,0.080672499999999994
16177.0,1.5329999999999999,1.7920999999999998,2.7472892999999994
16248.0,1.5409999999999999,1.7629999999999999,2.7167829999999995
16317.0,1.548,0.40679999999999999,0.62972640000000002
16386.0,1.5549999999999999,1.4835,2.3068425000000001
16455.0,1.5620000000000001,0.88690000000000002,1.3853378000000001
16524.0,1.569,1.3535999999999999,2.1237983999999996
16593.0,1.577,1.2352000000000001,1.9479104
16662.0,1.5840000000000001,1.5452000000000001,2.4475968000000003
16731.0,1.591,0.92549999999999999,1.4724705
16800.0,1.5980000000000001,2.0474000000000001,3.2717452000000002
16868.0,1.6060000000000001,0.57520000000000004,0.92377120000000013
16937.0,1.613,0.4405,0.71052649999999995
17006.0,1.621,1.9644999999999999,3.1844544999999997
17074.0,1.6279999999999999,0.17560000000000001,0.28587679999999999
17143.0,1.635,1.8844000000000001,3.080994
17212.0,1.6419999999999999,0.023800000000000002,0.039079599999999999
17282.0,1.649,1.7798,2.9348902000000003
17352.0,1.657,1.7597,2.9158229000000002
17421.0,1.6639999999999999,0.052200000000000003,0.086860800000000002
17493.0,1.6719999999999999,1.7501,2.9261672000000001
17565.0,1.679,0.15530000000000002,0.26074870000000006
17638.0,1.6859999999999999,1.4969000000000001,2.5237734000000001
17712.0,1.6930000000000001,1.3557000000000001,2.2952001000000002
17788.0,1.7010000000000001,0.83760000000000001,1.4247576000000002
17864.0,1.708,1.1262999999999999,1.9237203999999997
17941.0,1.7150000000000001,1.1779000000000002,2.0200985000000005
18019.0,1.722,1.4639000000000002,2.5208358000000004
18098.0,1.7290000000000001,0.77760000000000007,1.3444704000000003
18177.0,1.7370000000000001,2.0169000000000001,3.5033553000000004

