encoder,seconds,current (A),charge (C)
2054.0,0.25900000000000001,3.1124000000000001,0.80611160000000004
2119.0,0.26600000000000001,2.9156,0.77554960000000006
2183.0,0.27300000000000002,0.2278,0.062189400000000006
2248.0,0.28000000000000003,2.8490000000000002,0.7977200000000001
2313.0,0.28699999999999998,0.031899999999999998,0.0091552999999999982
2379.0,0.29399999999999998,2.6016999999999997,0.76489979999999991
2444.0,0.30199999999999999,2.4141999999999997,0.72908839999999986
2510.0,0.309,0.12479999999999999,0.038563199999999999
2576.0,0.317,2.1284999999999998,0.6747344999999999
2643.0,0.32400000000000001,0.70179999999999998,0.22738320000000001
2709.0,0.33100000000000002,1.2010000000000001,0.39753100000000002
2775.0,0.33800000000000002,1.9450000000000001,0.65741000000000005
2842.0,0.34599999999999997,1.7965,0.62158899999999995
2909.0,0.35299999999999998,1.3675999999999999,0.48276279999999994
2976.0,0.35999999999999999,2.5893000000000002,0.93214799999999998
3043.0,0.36699999999999999,0.85239999999999994,0.31283079999999996
3112.0,0.374,0.62879999999999991,0.23517119999999997
3180.0,0.38300000000000001,2.8100000000000001,1.07623
3250.0,0.39000000000000001,0.2258,0.088062000000000001
3321.0,0.39700000000000002,2.6388000000000003,1.0476036000000002
3393.0,0.40400000000000003,2.4994999999999998,1.009798
3465.0,0.41099999999999998,0.038299999999999994,0.015741299999999996
3540.0,0.41799999999999998,2.2490000000000001,0.94008199999999997
3615.0,0.42599999999999999,0.104,0.044303999999999996
3691.0,0.433,1.9865999999999999,0.86019780000000001
3768.0,0.44,1.9094,0.84013599999999999
3845.0,0.44800000000000001,1.0480999999999998,0.46954879999999993
3924.0,0.45500000000000002,1.6335999999999999,0.74328799999999995
4003.0,0.46200000000000002,1.6092,0.74345040000000007
4085.0,0.46999999999999997,1.1930000000000001,0.56071000000000004
4166.0,0.47699999999999998,0.91910000000000003,0.43841069999999999
4249.0,0.48399999999999999,2.524,1.221616
4332.0,0.49099999999999999,0.49369999999999997,0.24240669999999997
4416.0,0.498,2.4168000000000003,1.2035664000000001
4500.0,0.505,0.21130000000000002,0.10670650000000001
4584.0,0.51400000000000001,0.070099999999999996,0.036031399999999998
4670.0,0.52100000000000002,2.2761999999999998,1.1859001999999998
4755.0,0.52800000000000002,0.038600000000000002,0.020380800000000001
4841.0,0.53500000000000003,1.8577000000000001,0.99386950000000007
4927.0,0.54200000000000004,1.9205000000000001,1.0409110000000001
5015.0,0.54900000000000004,0.21059999999999998,0.1156194
5104.0,0.55700000000000005,1.7589000000000001,0.97970730000000017
5193.0,0.56399999999999995,0.9657,0.54465479999999999
5283.0,0.57099999999999995,1.3464,0.76879439999999999
5375.0,0.57899999999999996,1.3471,0.77997089999999991
5466.0,0.58599999999999997,1.7966,1.0528076
5559.0,0.59299999999999997,0.79170000000000007,0.46947810000000001
5652.0,0.60099999999999998,2.1711,1.3048310999999999
5746.0,0.60799999999999998,0.47999999999999998,0.29183999999999999
5841.0,0.61499999999999999,0.30019999999999997,0.18462299999999998
5936.0,0.622,2.0954000000000002,1.3033388000000001
6031.0,0.629,0.069500000000000006,0.043715500000000004
6126.0,0.63600000000000001,2.0735999999999999,1.3188096
6220.0,0.64500000000000002,0.033100000000000004,0.021349500000000004
6315.0,0.65200000000000002,0.050799999999999998,0.033121600000000001
6410.0,0.65900000000000003,1.6889000000000001,1.1129851000000002
6504.0,0.66600000000000004,0.1825,0.121545
6597.0,0.67300000000000004,1.5645,1.0529085
6690.0,0.68000000000000005,0.76629999999999998,0.52108399999999999
6783.0,0.68799999999999994,1.1308,0.77799039999999997
6875.0,0.69499999999999995,1.1736,0.81565199999999993
6969.0,0.70199999999999996,1.6495,1.1579489999999999
7065.0,0.70999999999999996,0.71620000000000006,0.50850200000000001
7162.0,0.71699999999999997,2.2555999999999998,1.6172651999999998
7259.0,0.72499999999999998,2.1361999999999997,1.5487449999999996
7358.0,0.73199999999999998,0.224,0.163968
7457.0,0.73899999999999999,1.9433,1.4360987000000001
7557.0,0.746,0.052899999999999996,0.039463399999999996
7657.0,0.753,1.7501,1.3178253
7758.0,0.76000000000000001,1.7814000000000001,1.3538640000000002
7858.0,0.76800000000000002,0.043499999999999997,0.033408
7959.0,0.77600000000000002,1.4672000000000001,1.1385472000000001
8058.0,0.78300000000000003,0.1643,0.12864690000000001
8157.0,0.79000000000000004,1.4614,1.154506
8255.0,0.79700000000000004,1.2565999999999999,1.0015102
8352.0,0.80400000000000005,1.1140999999999999,0.89573639999999999
8448.0,0.81200000000000006,1.0775999999999999,0.87501119999999999
8543.0,0.81899999999999995,1.6689000000000001,1.3668290999999999
8638.0,0.82599999999999996,0.74760000000000004,0.6175176
8734.0,0.83299999999999996,0.5867,0.48872109999999996
8829.0,0.84099999999999997,2.2885,1.9246284999999999
8926.0,0.84799999999999998,0.28110000000000002,0.2383728
9022.0,0.85599999999999998,2.1012,1.7986271999999999
9119.0,0.86299999999999999,0.075900000000000009,0.06550170000000001
9214.0,0.87,0.026100000000000002,0.022707000000000001
9309.0,0.877,1.8725000000000001,1.6421825000000001
9403.0,0.88400000000000001,0.046200000000000005,0.040840800000000003
9496.0,0.89100000000000001,1.6844000000000001,1.5008004000000001
9589.0,0.89900000000000002,0.1603,0.14410970000000001
9681.0,0.90700000000000003,0.49069999999999997,0.44506489999999999
9773.0,0.91400000000000003,1.5622,1.4278508000000001
9863.0,0.92100000000000004,1.1105999999999998,1.0228625999999998
9954.0,0.92800000000000005,1.2449000000000001,1.1552672000000002
10044.0,0.93500000000000005,1.7084999999999999,1.5974474999999999
10135.0,0.94299999999999995,0.85709999999999997,0.80824529999999994
10225.0,0.94999999999999996,0.58420000000000005,0.55498999999999998
10316.0,0.95699999999999996,2.2862,2.1878934000000001
10407.0,0.96399999999999997,0.30660000000000004,0.2955624
10500.0,0.97199999999999998,2.1960000000000002,2.134512
10593.0,0.97899999999999998,0.088999999999999996,0.087131
10686.0,0.98699999999999999,0.023699999999999999,0.0233919
10781.0,0.99399999999999999,1.8680999999999999,1.8568913999999999
10875.0,1.0009999999999999,0.040799999999999996,0.04084079999999999
10971.0,1.008,1.673,1.6863840000000001
11067.0,1.0149999999999999,0.1404,0.14250599999999999
11161.0,1.0229999999999999,0.41220000000000001,0.42168059999999996
11258.0,1.03,1.413,1.45539
11353.0,1.038,0.94099999999999995,0.97675800000000002
11451.0,1.0449999999999999,1.1352,1.1862839999999999
11549.0,1.052,1.6634,1.7498968000000001
11647.0,1.0589999999999999,1.8192000000000002,1.9265328000000002
11747.0,1.0669999999999999,0.53070000000000006,0.56625690000000006
11849.0,1.0740000000000001,2.3294999999999999,2.5018829999999999
11951.0,1.081,0.26189999999999997,0.28311389999999997
12055.0,1.0880000000000001,2.2278000000000002,2.4238464000000004
12161.0,1.095,1.8653,2.0425035
12266.0,1.103,0.025000000000000001,0.027575000000000002
12372.0,1.111,1.7542,1.9489162
12478.0,1.1180000000000001,0.0385,0.043043000000000005
12582.0,1.125,1.6324000000000001,1.8364500000000001
12687.0,1.1319999999999999,1.5163,1.7164515999999999
12791.0,1.139,0.3352,0.38179279999999999
12894.0,1.1459999999999999,1.2979000000000001,1.4873934
12997.0,1.1539999999999999,0.92320000000000002,1.0653728
13099.0,1.161,1.0769000000000002,1.2502809000000004
13201.0,1.169,0.95199999999999996,1.1128879999999999
13302.0,1.1759999999999999,1.8049000000000002,2.1225624000000001
13401.0,1.1830000000000001,0.59789999999999999,0.70731569999999999
13500.0,1.1899999999999999,2.3595999999999999,2.8079239999999999
13598.0,1.198,0.312,0.373776
13695.0,1.2050000000000001,0.18340000000000001,0.22099700000000003
13793.0,1.212,2.1049000000000002,2.5511388000000004
13890.0,1.2190000000000001,0.031800000000000002,0.038764200000000006
13985.0,1.226,2.0238,2.4811787999999999
14080.0,1.2330000000000001,0.040100000000000004,0.049443300000000009
14175.0,1.242,0.064500000000000002,0.080109
14268.0,1.2490000000000001,1.7789000000000001,2.2218461000000005
14361.0,1.256,0.35669999999999996,0.44801519999999995
14453.0,1.2629999999999999,1.5677000000000001,1.9800050999999999
14545.0,1.27,1.1124000000000001,1.4127480000000001
14636.0,1.2769999999999999,1.2866,1.6429881999999998
14729.0,1.2849999999999999,0.96529999999999994,1.2404104999999999
14821.0,1.292,1.8019000000000001,2.3280548000000003
14914.0,1.2989999999999999,0.66720000000000002,0.86669279999999993
15009.0,1.3069999999999999,2.2195999999999998,2.9010171999999996
15103.0,1.3140000000000001,2.1598999999999999,2.8381086
15198.0,1.3220000000000001,0.20860000000000001,0.27576920000000005
15293.0,1.329,2.2989000000000002,3.0552381
15387.0,1.3360000000000001,0.038899999999999997,0.0519704
15482.0,1.343,1.911,2.5664729999999998
15576.0,1.3500000000000001,1.6894,2.2806900000000003
15670.0,1.357,0.059700000000000003,0.081012899999999999
15764.0,1.365,1.6191,2.2100714999999997
15858.0,1.373,0.2737,0.37579010000000002
15952.0,1.3799999999999999,1.5894000000000001,2.1933720000000001
16045.0,1.387,1.2135,1.6831245000000001
16140.0,1.3939999999999999,1.2810999999999999,1.7858533999999997
16233.0,1.401,1.0911,1.5286310999999999
16328.0,1.409,1.7182999999999999,2.4210846999999998
16421.0,1.4159999999999999,0.63860000000000006,0.90425759999999999
16516.0,1.423,0.48619999999999997,0.69186259999999999
16614.0,1.4299999999999999,2.0444,2.923492
16713.0,1.4379999999999999,0.19259999999999999,0.2769588
16813.0,1.4450000000000001,1.8548,2.680186
16916.0,1.4530000000000001,0.039600000000000003,0.057538800000000008
17017.0,1.46,0.026199999999999998,0.038251999999999994
17120.0,1.4670000000000001,1.6372,2.4017724
17222.0,1.474,0.055200000000000006,0.081364800000000001
17323.0,1.4810000000000001,1.5282,2.2632642000000001
17426.0,1.488,0.21190000000000001,0.31530720000000001
17528.0,1.496,0.51429999999999998,0.76939279999999999
17630.0,1.504,1.2652999999999999,1.9030111999999999
17731.0,1.5109999999999999,1.0595000000000001,1.6009045
17832.0,1.518,0.87029999999999996,1.3211154000000001
17931.0,1.5249999999999999,1.6149,2.4627224999999999
18027.0,1.532,1.9767000000000001,3.0283044000000001
18123.0,1.54,0.4753,0.731962

