encoder,seconds,current (A),charge (C)
2023.0,0.36699999999999999,0.14449999999999999,0.053031499999999995
2099.0,0.376,1.1762000000000001,0.44225120000000007
2178.0,0.38300000000000001,0.52179999999999993,0.19984939999999998
2257.0,0.39000000000000001,1.0675999999999999,0.41636399999999996
2336.0,0.39700000000000002,1.0172999999999999,0.40386809999999995
2419.0,0.40400000000000003,1.0748,0.43421920000000003
2502.0,0.41199999999999998,0.72699999999999998,0.29952399999999996
2585.0,0.41899999999999998,1.4669000000000001,0.61463109999999999
2667.0,0.42599999999999999,0.48610000000000003,0.2070786
2751.0,0.433,1.7982,0.7786206
2837.0,0.441,1.7102999999999999,0.75424229999999992
2922.0,0.44800000000000001,0.18819999999999998,0.084313599999999989
3008.0,0.45600000000000002,1.5572999999999999,0.7101288
3096.0,0.46300000000000002,0.042900000000000001,0.0198627
3183.0,0.46999999999999997,1.5577000000000001,0.73211899999999996
3271.0,0.47699999999999998,1.3512999999999999,0.64457009999999992
3360.0,0.48399999999999999,0.033399999999999999,0.016165599999999999
3449.0,0.49099999999999999,1.2798,0.62838179999999999
3537.0,0.499,0.074499999999999997,0.0371755
3626.0,0.50700000000000001,1.0747,0.54487289999999999
3716.0,0.51400000000000001,0.99329999999999996,0.51055620000000002
3808.0,0.52100000000000002,0.54049999999999998,0.28160049999999998
3899.0,0.52800000000000002,0.80700000000000005,0.42609600000000003
3991.0,0.53500000000000003,0.9657,0.51664949999999998
4084.0,0.54300000000000004,0.70250000000000001,0.38145750000000006
4179.0,0.55000000000000004,0.5988,0.32934000000000002
4274.0,0.55700000000000005,1.2541,0.69853370000000004
4369.0,0.56399999999999995,0.38830000000000003,0.21900120000000001
4463.0,0.57199999999999995,1.7510999999999999,1.0016291999999998
4558.0,0.57899999999999996,0.20000000000000001,0.1158
4653.0,0.58699999999999997,0.1389,0.08153429999999999
4749.0,0.59399999999999997,1.4222000000000001,0.84478680000000006
4846.0,0.60099999999999998,0.038100000000000002,0.022898100000000001
4943.0,0.60799999999999998,1.3542000000000001,0.82335360000000002
5040.0,0.61499999999999999,0.024500000000000001,0.015067500000000001
5137.0,0.622,0.034099999999999998,0.021210199999999998
5235.0,0.63,1.2920999999999998,0.81402299999999983
5333.0,0.63800000000000001,0.093299999999999994,0.059525399999999999
5430.0,0.64500000000000002,1.1395,0.73497749999999995
5526.0,0.65200000000000002,0.40679999999999999,0.26523360000000001
5621.0,0.65900000000000003,0.94199999999999995,0.62077799999999994
5715.0,0.66600000000000004,1.0775999999999999,0.71768159999999992
5808.0,0.67400000000000004,1.0044999999999999,0.677033
5901.0,0.68100000000000005,0.78589999999999993,0.5351979
5994.0,0.68799999999999994,1.4924999999999999,1.02684
6088.0,0.69499999999999995,0.57579999999999998,0.40018099999999995
6182.0,0.70299999999999996,0.45779999999999998,0.32183339999999999
6276.0,0.71099999999999997,1.665,1.1838150000000001
6370.0,0.71799999999999997,0.26330000000000003,0.18904940000000001
6463.0,0.72499999999999998,1.9612000000000001,1.42187
6554.0,0.73199999999999998,0.096200000000000008,0.070418400000000006
6643.0,0.73899999999999999,1.6217000000000001,1.1984363
6730.0,0.746,1.6274999999999999,1.2141150000000001
6817.0,0.754,0.028000000000000001,0.021111999999999999
6901.0,0.76100000000000001,1.6472,1.2535191999999999
6987.0,0.76800000000000002,0.052600000000000001,0.040396800000000004
7073.0,0.77600000000000002,1.2592000000000001,0.9771392000000001
7160.0,0.78300000000000003,1.2521,0.98039430000000005
7247.0,0.79000000000000004,0.50239999999999996,0.39689599999999997
7334.0,0.79800000000000004,1.1933,0.95225340000000003
7422.0,0.80500000000000005,0.79879999999999995,0.64303399999999999
7509.0,0.81200000000000006,1.0281,0.83481720000000004
7596.0,0.81899999999999995,0.90570000000000006,0.74176830000000005
7684.0,0.82599999999999996,1.5305,1.2641929999999999
7770.0,0.83299999999999996,0.60029999999999994,0.50004989999999994
7855.0,0.84199999999999997,1.6789000000000001,1.4136337999999999
7942.0,0.84899999999999998,0.3755,0.31879950000000001
8027.0,0.85599999999999998,1.9770999999999999,1.6923975999999998
8111.0,0.86299999999999999,1.6765000000000001,1.4468195000000001
8197.0,0.87,0.098500000000000004,0.085695000000000007
8281.0,0.877,1.5975999999999999,1.4010951999999999
8367.0,0.88500000000000001,0.023600000000000003,0.020886000000000002
8451.0,0.89200000000000002,1.641,1.4637720000000001
8534.0,0.89900000000000002,1.5034000000000001,1.3515566000000001
8617.0,0.90700000000000003,0.056899999999999999,0.051608300000000003
8699.0,0.91400000000000003,1.3811,1.2623254000000002
8781.0,0.92100000000000004,0.25739999999999996,0.23706539999999998
8863.0,0.92900000000000005,1.3574000000000002,1.2610246000000003
8942.0,0.93600000000000005,0.65449999999999997,0.61261200000000005
9023.0,0.94299999999999995,0.98439999999999994,0.92828919999999993
9104.0,0.94999999999999996,1.0672999999999999,1.0139349999999998
9186.0,0.95699999999999996,1.496,1.4316719999999998
9267.0,0.96399999999999997,0.74309999999999998,0.7163484
9348.0,0.97199999999999998,1.6617,1.6151723999999998
9429.0,0.97999999999999998,1.8520999999999999,1.8150579999999998
9510.0,0.98699999999999999,0.36510000000000004,0.36035370000000005
9592.0,0.99399999999999999,1.9684999999999999,1.9566889999999999
9672.0,1.0009999999999999,0.21009999999999998,0.21031009999999994
9752.0,1.008,1.6752,1.6886015999999999
9834.0,1.016,0.0436,0.044297599999999999
9916.0,1.0229999999999999,0.023899999999999998,0.024449699999999994
9999.0,1.03,1.5270999999999999,1.572913
10081.0,1.0369999999999999,0.038899999999999997,0.040339299999999995
10163.0,1.0449999999999999,1.504,1.57168
10245.0,1.0529999999999999,0.10529999999999999,0.11088089999999998
10326.0,1.0600000000000001,1.4682999999999999,1.5563979999999999
10406.0,1.0669999999999999,1.3508,1.4413035999999999
10485.0,1.0740000000000001,0.70760000000000001,0.75996240000000004
10562.0,1.081,1.1496999999999999,1.2428256999999998
10638.0,1.0880000000000001,1.1435999999999999,1.2442368000000001
10714.0,1.0960000000000001,1.0380999999999998,1.1377575999999998
10789.0,1.103,0.8004,0.88284119999999999
10862.0,1.111,1.8725999999999998,2.0804585999999996
10934.0,1.1180000000000001,0.55159999999999998,0.61668880000000004
11006.0,1.125,1.9850000000000001,2.2331250000000002
11077.0,1.1319999999999999,0.33289999999999997,0.37684279999999992
11148.0,1.1399999999999999,2.0127000000000002,2.2944779999999998
11219.0,1.147,1.8784000000000001,2.1545247999999999
11290.0,1.1539999999999999,0.042299999999999997,0.048814199999999995
11360.0,1.161,1.8377000000000001,2.1335697000000002
11431.0,1.1679999999999999,0.032299999999999995,0.037726399999999993
11501.0,1.1759999999999999,1.7634000000000001,2.0737584
11571.0,1.1839999999999999,1.8480999999999999,2.1881503999999996
11639.0,1.1910000000000001,0.12670000000000001,0.15089970000000003
11708.0,1.198,1.6922000000000001,2.0272556000000002
11773.0,1.2050000000000001,0.53949999999999998,0.65009749999999999
11840.0,1.212,1.5715999999999999,1.9047791999999999
11906.0,1.2190000000000001,1.0232000000000001,1.2472808000000002
11971.0,1.2270000000000001,1.3919999999999999,1.7079839999999999
12038.0,1.234,1.1355999999999999,1.4013304
12102.0,1.2410000000000001,1.8325,2.2741325000000003
12167.0,1.2490000000000001,0.80779999999999996,1.0089422000000001
12231.0,1.256,2.1280999999999999,2.6728935999999996
12294.0,1.2629999999999999,2.2290999999999999,2.8153532999999995
12356.0,1.2709999999999999,0.36899999999999999,0.46899899999999994
12418.0,1.278,2.0291999999999999,2.5933175999999998
12480.0,1.2849999999999999,0.12379999999999999,0.15908299999999997
12541.0,1.292,2.1309,2.7531228000000003
12602.0,1.2989999999999999,2.1065999999999998,2.7364733999999995
12664.0,1.306,0.033100000000000004,0.043228600000000006
12726.0,1.3149999999999999,1.7344999999999999,2.2808674999999998
12787.0,1.3220000000000001,0.065799999999999997,0.086987599999999998
12850.0,1.329,1.633,2.1702569999999999
12913.0,1.3360000000000001,1.5374000000000001,2.0539664000000002
12977.0,1.343,0.5927,0.79599609999999998
13043.0,1.351,1.4605999999999999,1.9732705999999998
13108.0,1.3580000000000001,1.1074000000000002,1.5038492000000003
13175.0,1.365,1.2727999999999999,1.7373719999999999
13242.0,1.3720000000000001,0.94950000000000001,1.3027140000000001
13311.0,1.3799999999999999,1.6491,2.2757579999999997
13381.0,1.387,0.70189999999999997,0.97353529999999999
13452.0,1.395,1.9538,2.7255509999999998
13522.0,1.4019999999999999,0.42330000000000001,0.59346659999999996
13594.0,1.409,0.3095,0.43608550000000001
13666.0,1.4159999999999999,2.0670000000000002,2.9268719999999999
13738.0,1.423,0.10890000000000001,0.15496470000000001
13809.0,1.4299999999999999,1.6958,2.4249939999999999
13879.0,1.4379999999999999,0.027800000000000002,0.039976400000000002
13950.0,1.446,1.6830000000000001,2.4336180000000001
14021.0,1.4530000000000001,1.7407999999999999,2.5293823999999998
14092.0,1.46,0.068400000000000002,0.099863999999999994
14163.0,1.4670000000000001,1.6573,2.4312591000000001
14235.0,1.474,0.315,0.46431
14307.0,1.482,1.4923,2.2115885999999998
14378.0,1.4890000000000001,1.4427000000000001,2.1481803000000004
14450.0,1.496,1.0602,1.5860592
14522.0,1.5029999999999999,1.2727999999999999,1.9130183999999997
14595.0,1.5109999999999999,1.4634,2.2111974000000001
14668.0,1.518,0.81779999999999997,1.2414204
14741.0,1.526,0.69099999999999995,1.0544659999999999
14815.0,1.5329999999999999,1.9757,3.0287481000000001
14890.0,1.54,0.44500000000000001,0.68530000000000002
14966.0,1.5469999999999999,1.9422000000000001,3.0045834
15042.0,1.554,0.19490000000000002,0.30287460000000005
15118.0,1.5609999999999999,0.091600000000000001,0.14298759999999999
15195.0,1.569,1.7801,2.7929768999999998
15273.0,1.577,0.025100000000000001,0.039582699999999998
15350.0,1.5840000000000001,1.6735,2.6508240000000001
15428.0,1.591,0.041200000000000001,0.065549200000000002
15505.0,1.5980000000000001,0.068400000000000002,0.1093032
15583.0,1.605,1.5482,2.484861
15661.0,1.613,0.30589999999999995,0.49341669999999993
15740.0,1.6200000000000001,1.4765999999999999,2.3920919999999999
15820.0,1.627,0.77100000000000002,1.2544170000000001
15899.0,1.6339999999999999,1.1509,1.8805706
15979.0,1.6419999999999999,1.0555000000000001,1.733131
16059.0,1.6499999999999999,1.4693000000000001,2.4243449999999998
16139.0,1.657,0.7621,1.2627997
16221.0,1.6639999999999999,1.8454999999999999,3.0709119999999999
16302.0,1.671,0.52600000000000002,0.87894600000000001
16384.0,1.6779999999999999,0.35819999999999996,0.60105959999999992
16466.0,1.6850000000000001,1.9379000000000002,3.2653615000000005
16548.0,1.6930000000000001,0.16340000000000002,0.27663620000000005
16631.0,1.7,1.619,2.7523
16715.0,1.708,0.032600000000000004,0.055680800000000003
16800.0,1.7150000000000001,0.024799999999999999,0.042532
16885.0,1.722,1.6063000000000001,2.7660486
16972.0,1.7290000000000001,0.038700000000000005,0.066912300000000008
17060.0,1.7370000000000001,1.4902,2.5884773999999999
17147.0,1.744,0.10679999999999999,0.18625919999999999
17236.0,1.7509999999999999,0.32469999999999999,0.56854969999999994
17326.0,1.758,1.2130999999999998,2.1326297999999997
17415.0,1.7649999999999999,0.68620000000000003,1.2111430000000001
17507.0,1.7729999999999999,1.0792999999999999,1.9135988999999998
17598.0,1.7809999999999999,1.0550999999999999,1.8791330999999998
17689.0,1.788,1.4257,2.5491516000000001
17781.0,1.7949999999999999,0.61660000000000004,1.106797
17873.0,1.802,1.6394000000000002,2.9541988000000003
17966.0,1.8089999999999999,0.4829,0.87356610000000001
18058.0,1.8160000000000001,1.6953,3.0786648000000003
18152.0,1.8240000000000001,1.7225999999999999,3.1420224000000001

