encoder,seconds,current (A),charge (C)
2062.0,0.50900000000000001,2.1539000000000001,1.0963351000000001
2132.0,0.51500000000000001,1.8842999999999999,0.97041449999999996
2202.0,0.52100000000000002,2.3584000000000001,1.2287264
2274.0,0.52800000000000002,2.5869,1.3658832000000001
2346.0,0.53400000000000003,2.7909999999999999,1.490394
2420.0,0.54200000000000004,1.024,0.55500800000000006
2494.0,0.54800000000000004,0.85139999999999993,0.46656720000000002
2567.0,0.55400000000000005,3.2000000000000002,1.7728000000000002
2641.0,0.56100000000000005,3.0246,1.6968006000000002
2714.0,0.56699999999999995,0.3019,0.17117729999999998
2788.0,0.57299999999999995,0.1812,0.10382759999999999
2860.0,0.58099999999999996,0.078200000000000006,0.045434200000000001
2933.0,0.58699999999999997,2.7444999999999999,1.6110214999999999
3006.0,0.59299999999999997,2.7938000000000001,1.6567234
3079.0,0.59999999999999998,0.054399999999999997,0.032639999999999995
3149.0,0.60599999999999998,0.073799999999999991,0.044722799999999993
3222.0,0.61199999999999999,0.1076,0.065851199999999999
3294.0,0.61899999999999999,2.5251999999999999,1.5630987999999999
3366.0,0.626,2.5824000000000003,1.6165824000000002
3441.0,0.63200000000000001,0.74629999999999996,0.47166159999999996
3515.0,0.63900000000000001,1.0199,0.65171610000000002
3592.0,0.64500000000000002,2.1966000000000001,1.4168070000000001
3667.0,0.65100000000000002,2.1760999999999999,1.4166411000000001
3744.0,0.65800000000000003,1.9016,1.2512528000000001
3821.0,0.66400000000000003,2.2413000000000003,1.4882232000000002
3897.0,0.67100000000000004,2.5234999999999999,1.6932685000000001
3972.0,0.67800000000000005,1.2040999999999999,0.81637979999999999
4047.0,0.68400000000000005,1.0508,0.71874720000000003
4125.0,0.69099999999999995,0.88860000000000006,0.61402259999999997
4200.0,0.69699999999999995,3.2000000000000002,2.2303999999999999
4279.0,0.70299999999999996,3.0686,2.1572258
4355.0,0.71099999999999997,0.33360000000000001,0.2371896
4431.0,0.71699999999999997,0.18669999999999998,0.13386389999999998
4507.0,0.72299999999999998,3.1960000000000002,2.310708
4582.0,0.72999999999999998,2.7589999999999999,2.0140699999999998
4657.0,0.73599999999999999,2.7921,2.0549856000000002
4730.0,0.74199999999999999,0.053499999999999999,0.039696999999999996
4803.0,0.749,0.078,0.058422000000000002
4875.0,0.75600000000000001,2.5956999999999999,1.9623492
4947.0,0.76200000000000001,2.6369000000000002,2.0093178000000003
5022.0,0.76900000000000002,2.6163000000000003,2.0119347000000003
5097.0,0.77500000000000002,0.83750000000000002,0.64906249999999999
5175.0,0.78100000000000003,1.0760999999999998,0.84043409999999985
5253.0,0.78800000000000003,2.1428000000000003,1.6885264000000002
5332.0,0.79500000000000004,1.9205999999999999,1.526877
5411.0,0.80100000000000005,2.0028999999999999,1.6043229000000001
5490.0,0.80800000000000005,2.2961,1.8552488000000003
5567.0,0.81399999999999995,2.5278,2.0576292
5643.0,0.81999999999999995,1.1985999999999999,0.98285199999999984
5721.0,0.82699999999999996,1.002,0.828654
5798.0,0.83299999999999996,3.0308000000000002,2.5246564
5877.0,0.84099999999999997,3.0686999999999998,2.5807766999999999
5956.0,0.84699999999999998,0.4209,0.35650229999999999
6037.0,0.85299999999999998,0.2666,0.2274098
6117.0,0.85999999999999999,0.13969999999999999,0.12014199999999998
6200.0,0.86599999999999999,2.9343000000000004,2.5411038000000001
6281.0,0.872,2.7555999999999998,2.4028831999999998
6363.0,0.88,0.0441,0.038808000000000002
6444.0,0.88600000000000001,0.058700000000000002,0.052008200000000004
6526.0,0.89200000000000002,2.5362,2.2622903999999999
6608.0,0.89900000000000002,2.5196999999999998,2.2652103000000001
6691.0,0.90500000000000003,2.4950999999999999,2.2580654999999998
6773.0,0.91100000000000003,0.56789999999999996,0.51735690000000001
6855.0,0.91800000000000004,0.88579999999999992,0.81316440000000001
6938.0,0.92500000000000004,2.1894,2.0251950000000001
7020.0,0.93100000000000005,2.0858000000000003,1.9418798000000004
7102.0,0.93799999999999994,2.0129999999999999,1.8881939999999997
7183.0,0.94399999999999995,2.1315999999999997,2.0122303999999995
7263.0,0.94999999999999996,2.4679000000000002,2.3445050000000003
7344.0,0.95699999999999996,1.3377000000000001,1.2801789000000001
7424.0,0.96399999999999997,1.1005,1.0608820000000001
7504.0,0.96999999999999997,3.0689000000000002,2.9768330000000001
7584.0,0.97699999999999998,3.0876000000000001,3.0165852000000002
7663.0,0.98299999999999998,3.0744000000000002,3.0221352000000001
7741.0,0.98999999999999999,0.37939999999999996,0.37560599999999994
7820.0,0.996,0.24030000000000001,0.23933880000000002
7899.0,1.002,2.8610000000000002,2.8667220000000002
7977.0,1.01,2.8039000000000001,2.8319390000000002
8055.0,1.016,2.8130999999999999,2.8581096000000001
8134.0,1.022,0.0465,0.047523000000000003
8212.0,1.0289999999999999,0.063299999999999995,0.065135699999999991
8289.0,1.0349999999999999,2.6940999999999997,2.7883934999999993
8367.0,1.0409999999999999,2.6351999999999998,2.7432431999999998
8445.0,1.048,2.5618000000000003,2.6847664000000004
8522.0,1.0549999999999999,0.71910000000000007,0.75865050000000001
8600.0,1.0609999999999999,0.93120000000000003,0.98800319999999997
8679.0,1.0680000000000001,2.1875999999999998,2.3363567999999999
8758.0,1.0740000000000001,2.1295999999999999,2.2871904000000001
8838.0,1.0800000000000001,1.8811,2.0315880000000002
8916.0,1.087,2.1874000000000002,2.3777038000000004
8994.0,1.0940000000000001,2.4474999999999998,2.677565
9071.0,1.1000000000000001,1.3367,1.4703700000000002
9150.0,1.107,1.0944,1.2115008
9228.0,1.113,3.2000000000000002,3.5616000000000003
9307.0,1.119,3.0538000000000003,3.4172022000000002
9385.0,1.1259999999999999,3.0230000000000001,3.4038979999999999
9464.0,1.1319999999999999,0.3291,0.37254119999999996
9542.0,1.139,0.2051,0.23360890000000001
9620.0,1.1459999999999999,2.9026000000000001,3.3263795999999997
9697.0,1.1519999999999999,2.8755000000000002,3.312576
9774.0,1.159,0.037899999999999996,0.043926099999999996
9853.0,1.165,0.051499999999999997,0.059997499999999995
9930.0,1.171,0.068900000000000003,0.080681900000000001
10008.0,1.179,2.5589,3.0169431000000002
10085.0,1.1850000000000001,2.5145999999999997,2.9798009999999997
10164.0,1.1910000000000001,0.46039999999999998,0.54833639999999995
10240.0,1.198,0.74420000000000008,0.89155160000000011
10318.0,1.204,1.0602,1.2764808000000001
10396.0,1.21,2.3523000000000001,2.8462830000000001
10473.0,1.2170000000000001,2.2836999999999996,2.7792628999999995
10549.0,1.224,2.2103000000000002,2.7054072000000002
10625.0,1.23,2.2238000000000002,2.7352740000000004
10703.0,1.2370000000000001,2.4038000000000004,2.9735006000000008
10780.0,1.2430000000000001,1.2304999999999999,1.5295115000000001
10859.0,1.2490000000000001,1.0045999999999999,1.2547454
10938.0,1.256,3.0099999999999998,3.7805599999999999
11018.0,1.2629999999999999,2.9581,3.7360802999999998
11097.0,1.2689999999999999,0.4617,0.58589729999999995
11174.0,1.276,0.30319999999999997,0.38688319999999998
11251.0,1.282,0.1666,0.2135812
11328.0,1.288,2.7731999999999997,3.5718815999999998
11405.0,1.2949999999999999,2.7237,3.5271914999999998
11482.0,1.3009999999999999,0.039899999999999998,0.051909899999999995
11561.0,1.3089999999999999,0.052899999999999996,0.069246099999999991
11639.0,1.3149999999999999,2.5680000000000001,3.3769200000000001
11719.0,1.321,2.5840000000000001,3.4134639999999998
11799.0,1.3280000000000001,2.4529000000000001,3.2574512000000002
11879.0,1.3340000000000001,0.50249999999999995,0.67033500000000001
11959.0,1.3400000000000001,0.81599999999999995,1.09344
12039.0,1.3480000000000001,2.1508000000000003,2.8992784000000005
12120.0,1.3540000000000001,2.1095000000000002,2.8562630000000002
12201.0,1.3600000000000001,1.9753000000000001,2.6864080000000001
12284.0,1.367,2.0036,2.7389212000000001
12367.0,1.373,2.3066999999999998,3.1670990999999997
12450.0,1.379,1.3250999999999999,1.8273128999999999
12533.0,1.3859999999999999,1.1324000000000001,1.5695064000000001
12617.0,1.393,2.9914999999999998,4.1671594999999995
12700.0,1.399,3.105,4.3438949999999998
12785.0,1.4059999999999999,3.1496,4.4283375999999999
12869.0,1.4119999999999999,0.37810000000000005,0.53387720000000005
12955.0,1.419,0.25380000000000003,0.36014220000000002
13041.0,1.425,2.9851999999999999,4.2539100000000003
13126.0,1.431,2.6841999999999997,3.8410901999999996
13212.0,1.4390000000000001,0.034599999999999999,0.049789399999999998
13298.0,1.4450000000000001,0.042900000000000001,0.061990500000000004
13387.0,1.4510000000000001,0.055899999999999998,0.0811109
13475.0,1.458,2.4596999999999998,3.5862425999999994
13563.0,1.464,2.4420999999999999,3.5752343999999998
13653.0,1.47,0.28389999999999999,0.41733299999999995
13742.0,1.478,0.57489999999999997,0.84970219999999996
13832.0,1.484,2.1686999999999999,3.2183507999999996
13922.0,1.49,2.0646999999999998,3.0764029999999996
14013.0,1.4970000000000001,1.9336,2.8945992
14105.0,1.5029999999999999,1.7512999999999999,2.6322038999999995
14197.0,1.5089999999999999,2.0302000000000002,3.0635718000000001
14291.0,1.516,1.3934000000000002,2.1123944000000003
14384.0,1.5229999999999999,1.2115,1.8451145
14478.0,1.53,1.0452999999999999,1.5993089999999999
14573.0,1.536,2.9091999999999998,4.4685312000000001
14668.0,1.542,3.0545,4.7100390000000001
14765.0,1.5489999999999999,0.45860000000000001,0.71037139999999999
14863.0,1.5549999999999999,0.32750000000000001,0.50926249999999995
14961.0,1.5620000000000001,2.6974999999999998,4.213495
15059.0,1.569,2.6726999999999999,4.1934662999999999
15158.0,1.575,2.6501000000000001,4.1739075000000003
15258.0,1.581,0.036200000000000003,0.057232200000000004
15358.0,1.5880000000000001,0.042000000000000003,0.066696000000000005
15460.0,1.5940000000000001,2.3426,3.7341044000000001
15560.0,1.6000000000000001,2.4180999999999999,3.86896
15663.0,1.6080000000000001,0.17749999999999999,0.28542000000000001
15766.0,1.6140000000000001,0.3553,0.57345420000000003
15868.0,1.6200000000000001,0.6119,0.9912780000000001
15970.0,1.627,2.0017,3.2567659
16074.0,1.633,2.0104000000000002,3.2829832000000003
16176.0,1.639,1.522,2.4945580000000001
16279.0,1.647,1.8217000000000001,3.0003399000000002
16382.0,1.653,1.4912000000000001,2.4649536000000003
16483.0,1.659,1.2937000000000001,2.1462483000000003
16586.0,1.6659999999999999,1.1047,1.8404301999999999
16686.0,1.6719999999999999,2.7859000000000003,4.6580248000000006
16788.0,1.679,2.9443999999999999,4.9436476000000003
16888.0,1.6850000000000001,0.57520000000000004,0.96921200000000007
16990.0,1.6919999999999999,0.41260000000000002,0.69811920000000005
17090.0,1.6990000000000001,0.29460000000000003,0.50052540000000012
17191.0,1.7050000000000001,2.6886000000000001,4.5840630000000004
17292.0,1.7110000000000001,2.7229000000000001,4.6588819000000008
17391.0,1.718,0.033000000000000002,0.056694000000000001
17492.0,1.724,0.035200000000000002,0.060684800000000004
17592.0,1.73,2.5636000000000001,4.435028
17692.0,1.738,2.3269000000000002,4.0441522000000001
17793.0,1.744,2.3546,4.1064224000000005
17892.0,1.75,0.1951,0.34142499999999998
17991.0,1.7569999999999999,0.40560000000000002,0.71263920000000003
18090.0,1.7629999999999999,2.0421,3.6002223
18188.0,1.7689999999999999,2.0735000000000001,3.6680215
18287.0,1.7769999999999999,1.9624000000000001,3.4871848000000001
18386.0,1.7829999999999999,1.6125999999999998,2.8752657999999993
18483.0,1.7889999999999999,1.8511,3.3116178999999999
18580.0,1.796,1.4647000000000001,2.6306012000000001
18677.0,1.802,1.2615000000000001,2.2732230000000002
18773.0,1.8080000000000001,2.7049000000000003,4.8904592000000005
18870.0,1.8149999999999999,2.8300000000000001,5.13645
18966.0,1.8220000000000001,2.9979,5.4621738000000004
19061.0,1.8280000000000001,0.54479999999999995,0.99589439999999996
19155.0,1.835,0.40560000000000002,0.74427600000000005
19249.0,1.841,2.8319999999999999,5.2137119999999992
19343.0,1.8480000000000001,2.7731999999999997,5.1248735999999999
19436.0,1.8540000000000001,2.7591000000000001,5.1153714000000008
19528.0,1.861,0.032799999999999996,0.061040799999999992
19620.0,1.8680000000000001,0.039600000000000003,0.073972800000000005
19710.0,1.8740000000000001,2.5301999999999998,4.7415947999999997
19801.0,1.8799999999999999,2.4646999999999997,4.6336359999999992
19891.0,1.887,2.4135999999999997,4.5544631999999998
19980.0,1.893,0.24830000000000002,0.47003190000000006
20069.0,1.899,0.49819999999999998,0.94608179999999997
20157.0,1.907,2.2155999999999998,4.2251491999999997
20246.0,1.913,2.1250999999999998,4.0653162999999992
20333.0,1.919,1.4420999999999999,2.7673899
20420.0,1.9259999999999999,1.7370999999999999,3.3456545999999996
20506.0,1.9319999999999999,2.0464000000000002,3.9536448000000002
20591.0,1.9379999999999999,1.5105,2.927349
20678.0,1.946,1.276,2.4830960000000002
20764.0,1.952,2.8801999999999999,5.6221503999999998
20848.0,1.958,3.0176999999999996,5.9086565999999987
20932.0,1.9650000000000001,3.1828000000000003,6.2542020000000011
21017.0,1.9710000000000001,0.55010000000000003,1.0842471
21101.0,1.9770000000000001,0.37910000000000005,0.74948070000000011
21183.0,1.984,3.1563000000000003,6.2620992000000006
21266.0,1.9910000000000001,3.1960000000000002,6.3632360000000006
21349.0,1.9970000000000001,2.9563000000000001,5.9037311000000008
21432.0,2.004,0.034599999999999999,0.069338399999999994
21515.0,2.0099999999999998,0.042299999999999997,0.085022999999999987
21596.0,2.016,2.706,5.4552959999999997
21678.0,2.0230000000000001,2.6214,5.3030922
21759.0,2.0289999999999999,0.156,0.31652399999999997
21842.0,2.0369999999999999,0.27489999999999998,0.55997129999999995
21924.0,2.0430000000000001,0.54139999999999999,1.1060802000000001
22007.0,2.0489999999999999,2.2240000000000002,4.5569760000000006
22089.0,2.056,2.1692,4.4598751999999999
22172.0,2.0619999999999998,1.5161,3.1261981999999997
22254.0,2.0680000000000001,1.8404,3.8059472000000003
22338.0,2.0760000000000001,1.8472,3.8347872000000001
22419.0,2.0819999999999999,1.6009,3.3330737999999998
22502.0,2.0880000000000001,1.3397999999999999,2.7975023999999999
22586.0,2.0950000000000002,2.8258000000000001,5.9200510000000008
22667.0,2.101,3.0345999999999997,6.3756945999999992
22750.0,2.1070000000000002,0.71129999999999993,1.4987090999999999
22833.0,2.1139999999999999,0.5512999999999999,1.1654481999999997
22917.0,2.121,0.38819999999999999,0.8233722
22999.0,2.1269999999999998,2.9620000000000002,6.3001740000000002
23082.0,2.1339999999999999,2.8219000000000003,6.0219346000000007
23165.0,2.1400000000000001,0.029899999999999999,0.063986000000000001
23247.0,2.1459999999999999,0.038100000000000002,0.081762600000000005
23330.0,2.153,2.6591,5.7250423000000001
23411.0,2.1600000000000001,2.6372,5.6963520000000001
23494.0,2.1659999999999999,2.5670000000000002,5.5601219999999998
23575.0,2.173,0.17749999999999999,0.38570749999999998
23658.0,2.1789999999999998,0.34150000000000003,0.74412849999999997
23740.0,2.1859999999999999,2.3165,5.0638689999999995
23823.0,2.1920000000000002,2.3100000000000001,5.0635200000000005
23906.0,2.198,2.2360000000000002,4.9147280000000002
23989.0,2.206,1.5660000000000001,3.454596
24073.0,2.2120000000000002,1.8095999999999999,4.0028351999999998
24156.0,2.218,1.734,3.846012
24240.0,2.2250000000000001,1.4967000000000001,3.3301575000000003
24324.0,2.2309999999999999,2.7411999999999996,6.1156171999999991
24409.0,2.2370000000000001,2.9784999999999999,6.6629044999999998
24494.0,2.2450000000000001,3.0079000000000002,6.7527355000000009
24579.0,2.2509999999999999,0.68659999999999999,1.5455365999999999
24664.0,2.2570000000000001,0.52510000000000001,1.1851507000000001
24750.0,2.2639999999999998,2.9516999999999998,6.6826487999999991
24834.0,2.27,2.8293000000000004,6.422511000000001
24920.0,2.2759999999999998,0.073799999999999991,0.16796879999999997
25007.0,2.2829999999999999,0.032899999999999999,0.075110699999999989
25093.0,2.29,0.036600000000000001,0.083814
25180.0,2.2959999999999998,2.6450999999999998,6.0731495999999989
25267.0,2.3029999999999999,2.5030999999999999,5.7646392999999998
25355.0,2.3090000000000002,0.1062,0.24521580000000001
25444.0,2.3159999999999998,0.18240000000000001,0.42243839999999999
25534.0,2.3220000000000001,2.2789999999999999,5.2918380000000003
25623.0,2.3279999999999998,2.3075000000000001,5.3718599999999999
25713.0,2.3359999999999999,2.1665999999999999,5.0611775999999997
25805.0,2.3420000000000001,1.2592000000000001,2.9490464000000003
25896.0,2.3479999999999999,1.5069999999999999,3.5384359999999995
25989.0,2.355,1.8720999999999999,4.4087955000000001
26082.0,2.3610000000000002,1.6049,3.7891689000000004

