encoder,seconds,current (A),charge (C)
2006.0,0.28899999999999998,1.9239999999999999,0.55603599999999997
2081.0,0.29499999999999998,1.9582999999999999,0.5776985
2159.0,0.30099999999999999,0.034799999999999998,0.010474799999999999
2240.0,0.309,0.048799999999999996,0.015079199999999999
2324.0,0.315,1.8592,0.58564799999999995
2408.0,0.32200000000000001,1.3477000000000001,0.43395940000000005
2496.0,0.32800000000000001,1.3964000000000001,0.45801920000000007
2586.0,0.33400000000000002,0.64449999999999996,0.21526300000000001
2677.0,0.34100000000000003,0.85660000000000003,0.29210060000000004
2772.0,0.34799999999999998,0.99960000000000004,0.34786079999999997
2868.0,0.35399999999999998,0.92820000000000003,0.32858280000000001
2966.0,0.36099999999999999,1.4390999999999998,0.5195150999999999
3065.0,0.36699999999999999,1.7039000000000002,0.62533130000000003
3167.0,0.373,0.37669999999999998,0.1405091
3268.0,0.38,0.28670000000000001,0.108946
3370.0,0.38600000000000001,1.7925,0.69190499999999999
3472.0,0.39300000000000002,1.7274,0.67886820000000003
3573.0,0.40000000000000002,1.8146,0.72584000000000004
3675.0,0.40600000000000003,0.031300000000000001,0.012707800000000002
3776.0,0.41299999999999998,0.024199999999999999,0.0099945999999999993
3878.0,0.41899999999999998,1.4629000000000001,0.61295509999999997
3981.0,0.42499999999999999,1.3960999999999999,0.59334249999999999
4086.0,0.433,0.0751,0.0325183
4191.0,0.439,0.1336,0.058650399999999998
4296.0,0.44500000000000001,0.31510000000000005,0.14021950000000002
4400.0,0.45200000000000001,0.97460000000000002,0.4405192
4503.0,0.45800000000000002,1.0372999999999999,0.47508339999999999
4605.0,0.46400000000000002,0.95779999999999998,0.44441920000000001
4706.0,0.47099999999999997,1.2685,0.59746349999999993
4806.0,0.47799999999999998,1.4417,0.68913259999999998
4905.0,0.48399999999999999,0.52439999999999998,0.25380959999999997
5003.0,0.49099999999999999,0.4214,0.20690739999999999
5100.0,0.497,2.0504000000000002,1.0190488000000002
5197.0,0.503,1.8070999999999999,0.90897129999999993
5293.0,0.51000000000000001,0.1164,0.059364
5390.0,0.51700000000000002,0.064700000000000008,0.033449900000000005
5488.0,0.52300000000000002,0.031,0.016213000000000002
5586.0,0.53000000000000003,1.556,0.82468000000000008
5684.0,0.53600000000000003,1.3916999999999999,0.74595120000000004
5782.0,0.54200000000000004,0.0424,0.022980800000000003
5880.0,0.54900000000000004,0.062700000000000006,0.034422300000000003
5979.0,0.55500000000000005,1.1716,0.65023800000000009
6076.0,0.56200000000000006,1.1162999999999998,0.62736059999999993
6172.0,0.56899999999999995,1.1144000000000001,0.63409359999999992
6267.0,0.57499999999999996,0.74970000000000003,0.4310775
6363.0,0.58199999999999996,0.98160000000000003,0.5712912
6459.0,0.58799999999999997,0.68910000000000005,0.40519080000000002
6558.0,0.59399999999999997,0.56220000000000003,0.33394679999999999
6659.0,0.60199999999999998,1.6918,1.0184636
6762.0,0.60799999999999998,1.5597999999999999,0.94835839999999993
6867.0,0.61399999999999999,0.19209999999999999,0.1179494
6975.0,0.621,0.13600000000000001,0.084456000000000003
7085.0,0.627,0.081700000000000009,0.051225900000000005
7200.0,0.63400000000000001,1.4379999999999999,0.91169199999999995
7311.0,0.64000000000000001,1.3057999999999998,0.8357119999999999
7427.0,0.64700000000000002,0.0189,0.012228300000000001
7553.0,0.65400000000000003,1.0997000000000001,0.71920380000000006
7674.0,0.66000000000000003,1.0321,0.68118600000000007
7798.0,0.66700000000000004,0.059200000000000003,0.039486400000000005
7929.0,0.67300000000000004,0.82710000000000006,0.55663830000000003
8061.0,0.68000000000000005,0.7622000000000001,0.51829600000000009
8192.0,0.68799999999999994,0.4768,0.32803839999999995
8321.0,0.69399999999999995,0.58010000000000006,0.40258939999999999
8447.0,0.70099999999999996,0.53310000000000002,0.37370310000000001
8570.0,0.70699999999999996,1.0007999999999999,0.70756559999999991
8687.0,0.71399999999999997,1.1932,0.85194479999999995
8798.0,0.71999999999999997,1.3660000000000001,0.98352000000000006
8907.0,0.72599999999999998,0.1913,0.1388838
9015.0,0.73299999999999998,0.1406,0.10305979999999999
9120.0,0.73999999999999999,0.1024,0.075775999999999996
9225.0,0.746,1.3183,0.98345179999999999
9328.0,0.752,1.3991,1.0521232
9431.0,0.75800000000000001,1.212,0.91869599999999996
9534.0,0.76400000000000001,1.2510999999999999,0.95584039999999992
9639.0,0.77000000000000002,1.1312,0.87102400000000002
9743.0,0.77700000000000002,1.0928,0.84910560000000002
9851.0,0.78300000000000003,0.0567,0.044396100000000001
9962.0,0.79000000000000004,0.0998,0.078842000000000009
10073.0,0.79600000000000004,0.84529999999999994,0.67285879999999998
10182.0,0.80200000000000005,0.77889999999999993,0.62467779999999995
10294.0,0.80900000000000005,0.65770000000000006,0.53207930000000003
10407.0,0.81599999999999995,0.83640000000000003,0.68250239999999995
10523.0,0.82299999999999995,0.95829999999999993,0.78868089999999991
10640.0,0.82899999999999996,0.3679,0.30498910000000001
10758.0,0.83499999999999996,0.2646,0.220941
10879.0,0.84199999999999997,1.3557999999999999,1.1415835999999999
11000.0,0.84799999999999998,1.3984000000000001,1.1858432000000001
11123.0,0.85399999999999998,0.1014,0.086595599999999995
11248.0,0.86199999999999999,0.061799999999999994,0.053271599999999995
11380.0,0.86899999999999999,1.2839,1.1157091000000001
11506.0,0.875,1.4444000000000001,1.2638500000000001
11631.0,0.88100000000000001,0.020799999999999999,0.018324799999999999
11766.0,0.88800000000000001,1.1435,1.015428
11895.0,0.89400000000000002,1.1895,1.0634129999999999
12029.0,0.90200000000000002,0.058200000000000002,0.052496400000000006
12170.0,0.90900000000000003,0.90370000000000006,0.82146330000000012
12312.0,0.91500000000000004,0.83810000000000007,0.76686150000000008
12457.0,0.92200000000000004,0.46850000000000003,0.43195700000000004
12606.0,0.92900000000000005,0.63300000000000001,0.58805700000000005
12758.0,0.93600000000000005,0.84529999999999994,0.79120080000000004
12913.0,0.94399999999999995,0.39460000000000001,0.37250240000000001
13064.0,0.95099999999999996,1.1465999999999998,1.0904165999999997
13212.0,0.95799999999999996,0.23130000000000001,0.22158539999999999
13358.0,0.96399999999999997,1.3917999999999999,1.3416952
13499.0,0.97099999999999997,0.1045,0.10146949999999999
13637.0,0.97799999999999998,0.070099999999999996,0.068557799999999988
13777.0,0.98599999999999999,1.3936999999999999,1.3741881999999999
13906.0,0.99199999999999999,0.0235,0.023311999999999999
14041.0,0.999,1.2797000000000001,1.2784203000000001
14170.0,1.0049999999999999,1.1211,1.1267054999999999
14298.0,1.0109999999999999,1.0279,1.0392068999999999
14428.0,1.018,0.056299999999999996,0.057313399999999994
14566.0,1.024,0.91700000000000004,0.93900800000000006
14703.0,1.032,0.85450000000000004,0.88184400000000007
14839.0,1.0389999999999999,0.4496,0.46713439999999995
14975.0,1.0449999999999999,0.65289999999999992,0.68228049999999985
15110.0,1.052,0.62529999999999997,0.65781559999999994
15244.0,1.0580000000000001,1.014,1.0728120000000001
15374.0,1.0649999999999999,1.2678,1.3502069999999999
15504.0,1.0720000000000001,0.30960000000000004,0.33189120000000005
15636.0,1.0780000000000001,0.22550000000000001,0.24308900000000003
15769.0,1.085,1.577,1.7110449999999999
15895.0,1.091,1.5949,1.7400358999999999
16021.0,1.097,1.5787,1.7318339
16147.0,1.1040000000000001,0.043299999999999998,0.047803200000000004
16279.0,1.1100000000000001,0.024399999999999998,0.027084
16411.0,1.1180000000000001,1.3255999999999999,1.4820207999999999
16536.0,1.1240000000000001,0.028799999999999999,0.032371200000000003
16672.0,1.131,0.0373,0.042186300000000003
16808.0,1.137,0.98539999999999994,1.1203997999999999
16942.0,1.1439999999999999,0.13769999999999999,0.15752879999999997
17079.0,1.151,0.30060000000000003,0.34599060000000004
17213.0,1.1579999999999999,0.74750000000000005,0.86560499999999996
17349.0,1.165,0.68200000000000005,0.79453000000000007
17482.0,1.171,0.90279999999999994,1.0571788
17614.0,1.1779999999999999,0.39610000000000001,0.46660579999999996
17745.0,1.1839999999999999,0.37430000000000002,0.44317119999999999
17872.0,1.1910000000000001,1.3604000000000001,1.6202364000000002
17998.0,1.1970000000000001,1.4604000000000001,1.7480988000000002
18121.0,1.204,1.4883,1.7919132
18241.0,1.21,0.090700000000000003,0.109747
18368.0,1.2170000000000001,0.062399999999999997,0.075940800000000003
18489.0,1.2230000000000001,1.4610999999999998,1.7869252999999998
18604.0,1.2290000000000001,1.4442999999999999,1.7750447
18717.0,1.2350000000000001,1.3014000000000001,1.6072290000000002
18827.0,1.242,1.2363,1.5354846
18938.0,1.248,1.0962000000000001,1.3680576
19047.0,1.254,1.2487000000000001,1.5658698000000002
19154.0,1.26,1.0389999999999999,1.30914
19262.0,1.266,1.0017,1.2681522000000001
19372.0,1.272,0.89790000000000003,1.1421288000000001
19482.0,1.278,0.93089999999999995,1.1896902
19592.0,1.2849999999999999,0.90229999999999999,1.1594555
19702.0,1.2909999999999999,1.1254000000000002,1.4528914000000002
19809.0,1.2969999999999999,1.2354000000000001,1.6023137999999999
19916.0,1.3029999999999999,1.5130999999999999,1.9715692999999999
20021.0,1.3089999999999999,1.5602,2.0423018000000002
20127.0,1.3149999999999999,1.8739000000000001,2.4641785
20234.0,1.321,1.8477000000000001,2.4408117000000003
20340.0,1.3280000000000001,1.7575000000000001,2.3339600000000003
20446.0,1.3340000000000001,1.6482999999999999,2.1988322
20553.0,1.3400000000000001,1.7030999999999998,2.2821539999999998
20662.0,1.3460000000000001,1.5540999999999998,2.0918185999999999
20770.0,1.3520000000000001,1.3964000000000001,1.8879328000000002
20879.0,1.3580000000000001,1.4389000000000001,1.9540262000000002
20991.0,1.3640000000000001,1.3130999999999999,1.7910684000000001
21102.0,1.371,1.339,1.835769
21215.0,1.377,1.0752999999999999,1.4806880999999998
21327.0,1.383,0.26030000000000003,0.35999490000000006
21441.0,1.389,0.46379999999999999,0.64421819999999996
21553.0,1.395,0.66610000000000003,0.92920950000000002
21662.0,1.4019999999999999,0.78460000000000008,1.1000092000000001
21773.0,1.4079999999999999,0.51429999999999998,0.72413439999999996
21890.0,1.415,0.43280000000000002,0.61241200000000007
22009.0,1.421,0.32550000000000001,0.46253550000000004
22130.0,1.4279999999999999,1.3535999999999999,1.9329407999999997
22251.0,1.4339999999999999,1.4450000000000001,2.07213
22374.0,1.4399999999999999,1.4570000000000001,2.0980799999999999
22499.0,1.446,0.074900000000000008,0.10830540000000001
22632.0,1.4530000000000001,0.0436,0.063350799999999999
22768.0,1.4610000000000001,1.2715000000000001,1.8576615000000003
22895.0,1.4670000000000001,1.2047999999999999,1.7674415999999999
23023.0,1.4730000000000001,0.024500000000000001,0.036088500000000003
23159.0,1.48,1.0720999999999998,1.5867079999999998
23284.0,1.486,1.0722,1.5932892000000001
23409.0,1.492,0.96350000000000002,1.4375420000000001
23538.0,1.5,0.1988,0.29820000000000002
23665.0,1.506,0.38519999999999999,0.58011119999999994
23792.0,1.5129999999999999,0.79210000000000003,1.1984473
23920.0,1.5189999999999999,0.65249999999999997,0.99114749999999985
24048.0,1.5249999999999999,1.0465,1.5959124999999998
24172.0,1.532,1.3135999999999999,2.0124351999999996
24298.0,1.538,1.2661,1.9472618000000002
24425.0,1.5449999999999999,0.27110000000000001,0.41884949999999999
24556.0,1.552,0.2074,0.32188480000000003
24692.0,1.5580000000000001,1.7407000000000001,2.7120106000000002
24822.0,1.5649999999999999,1.4384999999999999,2.2512524999999997
24956.0,1.571,0.049500000000000002,0.0777645
25100.0,1.5780000000000001,1.4455,2.280999
25237.0,1.585,1.4667999999999999,2.3248779999999996
25373.0,1.5920000000000001,0.024500000000000001,0.039004000000000004
25515.0,1.5980000000000001,1.2735000000000001,2.0350530000000004
25651.0,1.605,1.1191,1.7961555
25783.0,1.611,0.1174,0.18913140000000001
25917.0,1.6180000000000001,0.2452,0.39673360000000002
26050.0,1.625,0.95779999999999998,1.5564249999999999

