encoder,seconds,current (A),charge (C)
2044.0,0.26500000000000001,0.32669999999999999,0.0865755
2127.0,0.27300000000000002,2.6546999999999996,0.72473309999999991
2211.0,0.28000000000000003,0.031800000000000002,0.0089040000000000022
2296.0,0.28699999999999998,2.4933000000000001,0.71557709999999997
2382.0,0.29499999999999998,2.3321999999999998,0.68799899999999992
2469.0,0.30199999999999999,0.092599999999999988,0.027965199999999996
2557.0,0.309,2.0895000000000001,0.64565550000000005
2644.0,0.316,0.61699999999999999,0.19497200000000001
2732.0,0.32300000000000001,1.8897999999999999,0.61040539999999999
2822.0,0.33000000000000002,1.7902,0.59076600000000001
2911.0,0.33900000000000002,1.6719999999999999,0.56680799999999998
3002.0,0.34599999999999997,1.4787000000000001,0.51163020000000003
3093.0,0.35299999999999998,2.3803000000000001,0.84024589999999999
3184.0,0.35999999999999999,0.81950000000000001,0.29502
3275.0,0.36699999999999999,0.59350000000000003,0.21781449999999999
3366.0,0.375,2.4657,0.9246375
3456.0,0.38200000000000001,0.23580000000000001,0.090075600000000006
3547.0,0.38900000000000001,2.3690000000000002,0.92154100000000017
3637.0,0.39600000000000002,0.0286,0.0113256
3728.0,0.40400000000000003,0.0385,0.015554
3819.0,0.41099999999999998,2.1551,0.88574609999999998
3910.0,0.41899999999999998,0.1237,0.051830300000000003
4000.0,0.42599999999999999,2.0430000000000001,0.87031800000000004
4091.0,0.433,0.61970000000000003,0.26833010000000002
4182.0,0.44,1.0544,0.46393600000000002
4270.0,0.44700000000000001,1.6705000000000001,0.74671350000000003
4359.0,0.45400000000000001,1.7814000000000001,0.80875560000000002
4448.0,0.46200000000000002,1.268,0.585816
4534.0,0.46999999999999997,2.4396999999999998,1.1466589999999999
4621.0,0.47699999999999998,2.4965000000000002,1.1908305000000001
4706.0,0.48399999999999999,0.4824,0.23348159999999998
4792.0,0.49099999999999999,2.4984999999999999,1.2267634999999999
4875.0,0.498,0.1739,0.086602200000000004
4957.0,0.50600000000000001,2.2404999999999999,1.1336930000000001
5041.0,0.51300000000000001,2.145,1.1003849999999999
5123.0,0.52000000000000002,0.040100000000000004,0.020852000000000002
5206.0,0.52700000000000002,2.0202999999999998,1.0646981
5290.0,0.53500000000000003,0.12570000000000001,0.067249500000000004
5371.0,0.54200000000000004,1.7213000000000001,0.93294460000000012
5455.0,0.55000000000000004,1.7619,0.96904500000000005
5538.0,0.55700000000000005,1.0137,0.56463090000000005
5623.0,0.56399999999999995,1.3334999999999999,0.75209399999999993
5708.0,0.57099999999999995,1.7042999999999999,0.97315529999999983
5795.0,0.57799999999999996,1.0455999999999999,0.60435679999999992
5882.0,0.58499999999999996,0.70520000000000005,0.41254200000000002
5970.0,0.59299999999999997,2.5219999999999998,1.4955459999999998
6059.0,0.60099999999999998,0.36560000000000004,0.21972560000000002
6147.0,0.60799999999999998,2.1890000000000001,1.3309120000000001
6236.0,0.61499999999999999,0.11009999999999999,0.067711499999999994
6324.0,0.622,0.028000000000000001,0.017416000000000001
6412.0,0.63,2.0615000000000001,1.298745
6502.0,0.63700000000000001,0.044899999999999995,0.028601299999999996
6593.0,0.64400000000000002,1.6188,1.0425072
6684.0,0.65100000000000002,0.1391,0.090554099999999998
6777.0,0.65800000000000003,0.43049999999999999,0.28326899999999999
6868.0,0.66600000000000004,1.5230999999999999,1.0143846000000001
6962.0,0.67400000000000004,0.9778,0.65903719999999999
7055.0,0.68100000000000005,1.0885,0.74126850000000011
7150.0,0.68799999999999994,1.0101,0.69494879999999992
7244.0,0.69499999999999995,1.9874000000000001,1.381243
7340.0,0.70199999999999996,0.58329999999999993,0.40947659999999991
7435.0,0.70899999999999996,2.3186999999999998,1.6439582999999998
7530.0,0.71699999999999997,0.26730000000000004,0.19165410000000002
7625.0,0.72399999999999998,0.1628,0.11786719999999999
7720.0,0.73199999999999998,1.9457,1.4242523999999999
7816.0,0.73899999999999999,0.0252,0.018622799999999998
7911.0,0.746,1.9845999999999999,1.4805116
8006.0,0.753,0.0436,0.0328308
8102.0,0.76100000000000001,0.091900000000000009,0.069935900000000009
8197.0,0.76800000000000002,1.5039,1.1549952000000001
8292.0,0.77500000000000002,0.48949999999999999,0.37936249999999999
8388.0,0.78200000000000003,1.3415999999999999,1.0491311999999999
8483.0,0.78900000000000003,1.0725,0.84620250000000008
8578.0,0.79700000000000004,1.3192999999999999,1.0514821000000001
8673.0,0.80500000000000005,0.90789999999999993,0.7308595
8765.0,0.81200000000000006,1.7855000000000001,1.4498260000000001
8857.0,0.81899999999999995,0.57840000000000003,0.47370960000000001
8947.0,0.82599999999999996,2.2194000000000003,1.8332244000000002
9035.0,0.83299999999999996,0.3019,0.2514827
9122.0,0.83999999999999997,0.1303,0.10945199999999999
9208.0,0.84799999999999998,1.9542999999999999,1.6572463999999998
9293.0,0.85499999999999998,0.0269,0.022999499999999999
9379.0,0.86199999999999999,2.0474999999999999,1.7649449999999998
9464.0,0.87,0.051200000000000002,0.044544
9551.0,0.877,0.10490000000000001,0.091997300000000004
9638.0,0.88400000000000001,1.4981,1.3243204
9727.0,0.89200000000000002,0.52670000000000006,0.46981640000000008
9817.0,0.89900000000000002,1.3354000000000001,1.2005246000000001
9908.0,0.90600000000000003,1.0580000000000001,0.95854800000000007
10000.0,0.91300000000000003,1.5997999999999999,1.4606173999999998
10093.0,0.92000000000000004,0.75949999999999995,0.69874000000000003
10187.0,0.92700000000000005,1.8800999999999999,1.7428527
10279.0,0.93600000000000005,0.46879999999999999,0.43879680000000004
10371.0,0.94299999999999995,1.9333,1.8231018999999999
10464.0,0.94999999999999996,2.2271000000000001,2.115745
10556.0,0.95699999999999996,0.10779999999999999,0.1031646
10647.0,0.96399999999999997,1.9544000000000001,1.8840416
10741.0,0.97199999999999998,0.029700000000000001,0.028868399999999999
10834.0,0.97899999999999998,1.9017999999999999,1.8618621999999998
10929.0,0.98599999999999999,1.6085999999999998,1.5860795999999997
11023.0,0.99299999999999999,0.1182,0.11737259999999999
11117.0,1.0009999999999999,1.5483,1.5498482999999998
11210.0,1.008,0.61429999999999996,0.61921439999999994
11302.0,1.016,1.2910999999999999,1.3117576
11393.0,1.0229999999999999,1.242,1.2705659999999999
11481.0,1.03,1.5427,1.588981
11567.0,1.0369999999999999,0.80510000000000004,0.83488869999999993
11652.0,1.044,2.0390000000000001,2.1287160000000003
11738.0,1.0509999999999999,0.50980000000000003,0.53579980000000005
11822.0,1.0589999999999999,2.1928000000000001,2.3221751999999998
11907.0,1.0660000000000001,2.1212,2.2611992000000001
11992.0,1.0740000000000001,0.095500000000000002,0.10256700000000001
12079.0,1.081,1.8797000000000001,2.0319557000000001
12164.0,1.0880000000000001,0.029600000000000001,0.032204800000000006
12251.0,1.095,1.7561,1.9229295
12337.0,1.103,1.5703,1.7320409000000001
12423.0,1.1100000000000001,0.14280000000000001,0.15850800000000004
12510.0,1.117,1.5070999999999999,1.6834306999999999
12598.0,1.1240000000000001,0.66079999999999994,0.74273920000000004
12686.0,1.1319999999999999,1.171,1.325572
12774.0,1.139,1.1924000000000001,1.3581436000000002
12860.0,1.147,1.4927999999999999,1.7122416
12945.0,1.1539999999999999,0.76719999999999999,0.88534879999999994
13030.0,1.161,2.1843000000000004,2.5359723000000005
13113.0,1.1679999999999999,0.43289999999999995,0.50562719999999994
13195.0,1.175,0.31769999999999998,0.3732975
13276.0,1.1819999999999999,2.2010000000000001,2.6015820000000001
13356.0,1.1899999999999999,0.077099999999999988,0.091748999999999983
13435.0,1.1970000000000001,1.9789000000000001,2.3687433000000002
13514.0,1.2050000000000001,0.029899999999999999,0.036029499999999999
13593.0,1.212,0.049700000000000001,0.060236400000000002
13673.0,1.2190000000000001,1.8779999999999999,2.289282
13751.0,1.226,0.17169999999999999,0.21050419999999997
13831.0,1.234,1.6100000000000001,1.9867400000000002
13912.0,1.2410000000000001,0.73499999999999999,0.91213500000000003
13993.0,1.248,1.1375,1.4196
14076.0,1.2549999999999999,1.1464000000000001,1.4387319999999999
14158.0,1.262,1.7355,2.1902010000000001
14242.0,1.2709999999999999,0.78360000000000007,0.99595560000000005
14326.0,1.278,2.1764999999999999,2.7815669999999999
14413.0,1.2849999999999999,2.3700000000000001,3.0454499999999998
14500.0,1.292,0.2651,0.34250920000000001
14588.0,1.2989999999999999,2.2216,2.8858584
14678.0,1.306,0.061700000000000005,0.080580200000000005
14768.0,1.3140000000000001,0.025600000000000001,0.033638400000000006
14860.0,1.321,2.0322,2.6845361999999997
14952.0,1.3280000000000001,0.048799999999999996,0.0648064
15046.0,1.3360000000000001,1.7424000000000002,2.3278464000000003
15140.0,1.343,0.18740000000000001,0.25167820000000002
15236.0,1.3500000000000001,0.51619999999999999,0.69686999999999999
15331.0,1.3580000000000001,1.2887999999999999,1.7501904000000001
15427.0,1.365,1.1023000000000001,1.5046395000000001
15524.0,1.3720000000000001,1.0774999999999999,1.4783299999999999
15621.0,1.379,1.6862999999999999,2.3254077
15718.0,1.3859999999999999,1.8875,2.6160749999999999
15815.0,1.393,0.50849999999999995,0.70834049999999993
15911.0,1.4019999999999999,2.4199999999999999,3.3928399999999996
16007.0,1.409,0.22889999999999999,0.32252009999999998
16103.0,1.4159999999999999,2.0611999999999999,2.9186591999999996
16199.0,1.423,2.0384000000000002,2.9006432000000002
16295.0,1.4299999999999999,0.026499999999999999,0.037894999999999998
16390.0,1.4370000000000001,1.7632000000000001,2.5337184000000001
16487.0,1.4450000000000001,0.053399999999999996,0.077162999999999995
16583.0,1.452,1.7755000000000001,2.5780259999999999
16679.0,1.4590000000000001,1.6234000000000002,2.3685406000000002
16774.0,1.4670000000000001,0.64049999999999996,0.93961349999999999
16868.0,1.474,1.3363,1.9697062000000001
16961.0,1.4810000000000001,1.1875,1.7586875000000002
17055.0,1.4890000000000001,1.2435999999999998,1.8517203999999998
17147.0,1.496,0.9345,1.398012
17241.0,1.5029999999999999,2.1597,3.2460290999999999
17334.0,1.51,0.59120000000000006,0.89271200000000006
17428.0,1.5169999999999999,2.2315,3.3851855
17523.0,1.524,0.2747,0.41864279999999998
17619.0,1.5329999999999999,0.1255,0.19239149999999999
17714.0,1.54,2.0289999999999999,3.12466
17810.0,1.5469999999999999,0.027300000000000001,0.042233100000000003
17908.0,1.554,2.0091999999999999,3.1222968
18005.0,1.5609999999999999,0.055500000000000001,0.086635500000000004
18102.0,1.569,0.1103,0.17306069999999998
18202.0,1.5760000000000001,1.6333,2.5740807999999999
18301.0,1.583,0.62470000000000003,0.98890010000000006
18400.0,1.5900000000000001,1.3460000000000001,2.1401400000000002
18500.0,1.5980000000000001,1.1962000000000002,1.9115276000000003
18601.0,1.605,1.5377000000000001,2.4680085000000003
18702.0,1.613,0.82850000000000001,1.3363704999999999
18804.0,1.6200000000000001,1.8976999999999999,3.074274
18906.0,1.627,0.50180000000000002,0.81642860000000006
19008.0,1.6339999999999999,2.2001999999999997,3.5951267999999992
19111.0,1.641,2.2266999999999997,3.6540146999999994
19213.0,1.6479999999999999,0.075999999999999998,0.125248
19316.0,1.6559999999999999,1.9218,3.1825007999999997
19420.0,1.6639999999999999,0.030300000000000001,0.050419199999999997
19523.0,1.671,1.7196,2.8734516000000001
19625.0,1.6779999999999999,1.6927999999999999,2.8405183999999997
19727.0,1.6850000000000001,0.1275,0.21483750000000001
19827.0,1.6919999999999999,1.5837999999999999,2.6797895999999999
19926.0,1.7,0.65149999999999997,1.1075499999999998
20024.0,1.7070000000000001,1.3425,2.2916475000000003
20121.0,1.714,1.1484000000000001,1.9683576
20218.0,1.7210000000000001,1.5219,2.6191899000000003
20314.0,1.7290000000000001,0.78239999999999998,1.3527696
20410.0,1.736,1.9724999999999999,3.4242599999999999
20507.0,1.744,0.46229999999999999,0.80625119999999995
20605.0,1.7509999999999999,0.31219999999999998,0.54666219999999988
20702.0,1.758,2.3140999999999998,4.0681877999999996
20801.0,1.7649999999999999,0.088400000000000006,0.156026
20900.0,1.772,2.0014000000000003,3.5464808000000008
20999.0,1.7789999999999999,0.029399999999999999,0.052302599999999998
21099.0,1.7869999999999999,0.041500000000000002,0.074160500000000004
21198.0,1.7949999999999999,1.6725999999999999,3.0023169999999997
21297.0,1.802,0.13739999999999999,0.2475948
21397.0,1.8089999999999999,1.6262999999999999,2.9419766999999997
21496.0,1.8160000000000001,0.64479999999999993,1.1709567999999999
21594.0,1.823,1.0931,1.9927212999999999
21693.0,1.831,1.1496,2.1049175999999998
21790.0,1.8380000000000001,1.6812,3.0900456000000003
21889.0,1.845,0.83789999999999998,1.5459254999999998
21984.0,1.8520000000000001,2.0331000000000001,3.7653012000000006
22080.0,1.8600000000000001,2.4329999999999998,4.5253800000000002
22176.0,1.8680000000000001,0.29799999999999999,0.55666400000000005
22270.0,1.875,2.1560000000000001,4.0425000000000004
22364.0,1.8819999999999999,0.098599999999999993,0.18556519999999999
22457.0,1.889,2.0464000000000002,3.8656496000000002
22549.0,1.8959999999999999,2.0152999999999999,3.8210087999999995
22642.0,1.903,0.045600000000000002,0.086776800000000001
22734.0,1.911,1.7604000000000002,3.3641244000000006
22826.0,1.9179999999999999,0.1535,0.29441299999999998
22916.0,1.925,1.6602999999999999,3.1960774999999999
23006.0,1.9330000000000001,0.81120000000000003,1.5680496000000002
23095.0,1.9399999999999999,1.0706,2.0769639999999998
23183.0,1.9470000000000001,1.3109000000000002,2.5523223000000006
23272.0,1.9550000000000001,1.6757,3.2759935000000002
23360.0,1.962,0.87409999999999999,1.7149842
23446.0,1.9690000000000001,2.2382,4.4070157999999999
23535.0,1.976,2.5991,5.1358215999999999
23623.0,1.9830000000000001,0.35139999999999999,0.69682620000000006
23711.0,1.99,2.2498,4.4771020000000004
23800.0,1.9990000000000001,0.090900000000000009,0.18170910000000004
23890.0,2.0059999999999998,0.025499999999999998,0.05115299999999999
23979.0,2.0129999999999999,2.0179999999999998,4.0622339999999992
24069.0,2.02,0.047299999999999995,0.095545999999999992
24160.0,2.0270000000000001,1.7607999999999999,3.5691416
24250.0,2.0339999999999998,0.1484,0.30184559999999999
24342.0,2.0419999999999998,0.45069999999999999,0.92032939999999985
24434.0,2.0489999999999999,1.5695999999999999,3.2161103999999998
24526.0,2.056,1.1262000000000001,2.3154672000000001
24618.0,2.0640000000000001,1.1720999999999999,2.4192144
24711.0,2.0710000000000002,1.7024000000000001,3.5256704000000005
24800.0,2.0779999999999998,2.1416999999999997,4.4504525999999993
24892.0,2.0859999999999999,0.6137999999999999,1.2803867999999996
24981.0,2.093,2.2982,4.8101326000000002
25070.0,2.1000000000000001,0.3226,0.67746000000000006
25159.0,2.1070000000000002,2.3998000000000004,5.0563786000000013
25247.0,2.1139999999999999,2.2871999999999999,4.8351407999999996
25336.0,2.121,0.025700000000000001,0.054509700000000001
25424.0,2.1299999999999999,1.9815999999999998,4.220807999999999
25513.0,2.137,0.042999999999999997,0.091890999999999987
25602.0,2.1440000000000001,1.9056999999999999,4.0858208000000005
25691.0,2.1509999999999998,1.6002000000000001,3.4420302
25782.0,2.1579999999999999,0.48269999999999996,1.0416665999999999
25871.0,2.1659999999999999,1.6630999999999998,3.6022745999999994
25961.0,2.173,1.0972,2.3842156000000001
26051.0,2.1800000000000002,1.2860999999999998,2.8036979999999998

