encoder,seconds,current (A),charge (C)
2060.0,0.23000000000000001,2.4129,0.55496699999999999
2144.0,0.23799999999999999,0.17480000000000001,0.041602399999999998
2230.0,0.245,2.206,0.54047000000000001
2315.0,0.252,0.83810000000000007,0.21120120000000001
2400.0,0.25900000000000001,1.2692999999999999,0.3287487
2485.0,0.26600000000000001,1.7150999999999998,0.45621659999999997
2574.0,0.27300000000000002,2.1305999999999998,0.5816538
2664.0,0.28100000000000003,1.2805,0.35982050000000004
2755.0,0.28899999999999998,0.92920000000000003,0.26853879999999997
2850.0,0.29599999999999999,2.8805999999999998,0.8526575999999999
2944.0,0.30299999999999999,0.42269999999999996,0.12807809999999997
3042.0,0.31,2.9379,0.91074900000000003
3140.0,0.317,0.097099999999999992,0.030780699999999998
3239.0,0.32500000000000001,0.0304,0.0098799999999999999
3341.0,0.33200000000000002,2.3105000000000002,0.76708600000000016
3442.0,0.33900000000000002,0.064200000000000007,0.021763800000000003
3544.0,0.34699999999999998,2.3681000000000001,0.82173069999999993
3647.0,0.35399999999999998,0.31510000000000005,0.11154540000000002
3751.0,0.36099999999999999,0.77579999999999993,0.28006379999999997
3855.0,0.36899999999999999,1.7772000000000001,0.6557868
3959.0,0.376,1.4974000000000001,0.56302240000000003
4066.0,0.38300000000000001,1.4365000000000001,0.55017950000000004
4171.0,0.39000000000000001,1.1902999999999999,0.46421699999999999
4278.0,0.39700000000000002,2.5735999999999999,1.0217191999999999
4386.0,0.40400000000000003,0.70289999999999997,0.28397159999999999
4493.0,0.41299999999999998,3.0228000000000002,1.2484164
4600.0,0.41999999999999998,0.30710000000000004,0.12898200000000001
4707.0,0.42699999999999999,0.1169,0.049916300000000004
4814.0,0.434,2.6589,1.1539626000000001
4920.0,0.441,0.036899999999999995,0.016272899999999996
5027.0,0.44900000000000001,2.2690000000000001,1.0187810000000002
5135.0,0.45600000000000002,0.095899999999999999,0.043730400000000003
5243.0,0.46300000000000002,0.2137,0.098943100000000006
5351.0,0.46999999999999997,1.9137,0.89943899999999988
5461.0,0.47799999999999998,0.9927999999999999,0.47455839999999994
5571.0,0.48499999999999999,1.7064999999999999,0.8276524999999999
5679.0,0.49299999999999999,1.6995,0.83785350000000003
5788.0,0.5,2.0585999999999998,1.0292999999999999
5896.0,0.50700000000000001,1.0535000000000001,0.53412450000000011
6004.0,0.51400000000000001,2.7544,1.4157616
6110.0,0.52100000000000002,0.58089999999999997,0.3026489
6217.0,0.52800000000000002,2.714,1.432992
6323.0,0.53600000000000003,2.8029999999999999,1.502408
6430.0,0.54400000000000004,0.0487,0.0264928
6538.0,0.55100000000000005,2.2774999999999999,1.2549025
6644.0,0.55800000000000005,0.043700000000000003,0.024384600000000003
6752.0,0.56499999999999995,2.3555000000000001,1.3308575
6859.0,0.57199999999999995,2.2305000000000001,1.275846
6967.0,0.57999999999999996,0.4521,0.26221800000000001
7072.0,0.58699999999999997,1.9890000000000001,1.167543
7177.0,0.59399999999999997,1.2130999999999998,0.72058139999999993
7282.0,0.60099999999999998,1.6357000000000002,0.98305570000000009
7384.0,0.60799999999999998,1.4242999999999999,0.86597439999999992
7487.0,0.61599999999999999,2.2189000000000001,1.3668424000000001
7588.0,0.624,0.90029999999999999,0.56178720000000004
7689.0,0.63100000000000001,3.1058000000000003,1.9597598000000003
7787.0,0.63800000000000001,0.48610000000000003,0.31013180000000001
7884.0,0.64500000000000002,0.24840000000000001,0.160218
7981.0,0.65200000000000002,2.8663000000000003,1.8688276000000004
8077.0,0.65900000000000003,0.0298,0.019638200000000001
8174.0,0.66700000000000004,2.4784000000000002,1.6530928000000003
8270.0,0.67400000000000004,0.063299999999999995,0.042664199999999999
8365.0,0.68200000000000005,2.3835999999999999,1.6256152000000001
8458.0,0.68899999999999995,2.1835,1.5044314999999999
8551.0,0.69599999999999995,0.68529999999999991,0.47696879999999992
8641.0,0.70299999999999996,2.0286,1.4261058
8730.0,0.71099999999999997,1.6838,1.1971817999999999
8816.0,0.71799999999999997,1.7766999999999999,1.2756706
8901.0,0.72499999999999998,1.3631,0.98824749999999995
8985.0,0.73199999999999998,2.5347,1.8554003999999999
9067.0,0.73899999999999999,0.84189999999999998,0.6221641
9147.0,0.747,2.9808000000000003,2.2266576000000002
9226.0,0.755,0.39600000000000002,0.29898000000000002
9305.0,0.76200000000000001,0.1925,0.14668500000000001
9383.0,0.76900000000000002,2.6095999999999999,2.0067824000000001
9458.0,0.77600000000000002,0.037499999999999999,0.029100000000000001
9530.0,0.78300000000000003,2.8460999999999999,2.2284962999999998
9600.0,0.79100000000000004,0.082599999999999993,0.065336599999999995
9667.0,0.79800000000000004,2.4195000000000002,1.9307610000000002
9731.0,0.80500000000000005,0.52100000000000002,0.41940500000000003
9793.0,0.81200000000000006,0.96510000000000007,0.78366120000000006
9853.0,0.81899999999999995,2.1936,1.7965583999999999
9911.0,0.82699999999999996,1.8575999999999999,1.5362351999999999
9969.0,0.83499999999999996,1.8512,1.5457519999999998
10027.0,0.84199999999999997,2.8288000000000002,2.3818496000000002
10084.0,0.84899999999999998,3.2000000000000002,2.7168000000000001
10138.0,0.85599999999999998,0.79570000000000007,0.68111920000000004
10191.0,0.86299999999999999,3.1936,2.7560767999999998
10242.0,0.87,0.32500000000000001,0.28275
10292.0,0.878,3.0584000000000002,2.6852752000000004
10339.0,0.88500000000000001,2.7716999999999996,2.4529544999999997
10386.0,0.89200000000000002,0.043400000000000001,0.038712799999999999
10432.0,0.90000000000000002,2.8593999999999999,2.5734599999999999
10476.0,0.90700000000000003,0.1278,0.11591460000000001
10520.0,0.91400000000000003,2.4119000000000002,2.2044766
10564.0,0.92200000000000004,0.6997000000000001,0.64512340000000012
10605.0,0.92900000000000005,1.2444999999999999,1.1561405
10648.0,0.93600000000000005,2.1768000000000001,2.0374848000000001
10689.0,0.94299999999999995,1.952,1.8407359999999999
10731.0,0.94999999999999996,1.5863,1.506985
10772.0,0.95699999999999996,2.5629,2.4526952999999998
10812.0,0.96599999999999997,3.0080999999999998,2.9058245999999999
10853.0,0.97299999999999998,0.66260000000000008,0.64470980000000011
10893.0,0.97999999999999998,2.9883000000000002,2.928534
10931.0,0.98699999999999999,0.21709999999999999,0.21427769999999999
10969.0,0.99399999999999999,2.7618,2.7452291999999998
11009.0,1.0009999999999999,2.7706999999999997,2.7734706999999994
11046.0,1.0089999999999999,0.054799999999999995,0.055293199999999987
11083.0,1.016,2.5008000000000004,2.5408128000000003
11120.0,1.0229999999999999,0.20780000000000001,0.2125794
11157.0,1.03,2.2965,2.3653949999999999
11193.0,1.038,2.218,2.3022840000000002
11230.0,1.046,1.5122,1.5817612000000001
11267.0,1.0529999999999999,1.8634000000000002,1.9621602
11304.0,1.0600000000000001,2.1957,2.327442
11342.0,1.0669999999999999,1.3956999999999999,1.4892118999999999
11380.0,1.0740000000000001,1.0155000000000001,1.0906470000000001
11418.0,1.081,3.0145,3.2586744999999997
11456.0,1.089,0.57599999999999996,0.62726399999999993
11495.0,1.0960000000000001,2.7819000000000003,3.0489624000000006
11535.0,1.1040000000000001,0.1195,0.13192800000000002
11575.0,1.111,0.030600000000000002,0.033996600000000002
11616.0,1.1180000000000001,2.7601,3.0857918000000004
11657.0,1.125,0.061899999999999997,0.069637499999999991
11700.0,1.133,2.488,2.8189039999999999
11743.0,1.1399999999999999,0.25650000000000001,0.29241
11787.0,1.147,0.79689999999999994,0.91404429999999992
11832.0,1.1539999999999999,2.0329000000000002,2.3459666000000001
11877.0,1.161,1.4496,1.6829856000000001
11924.0,1.169,1.6865000000000001,1.9715185000000002
11973.0,1.177,2.1621999999999999,2.5449093999999999
12024.0,1.1839999999999999,2.6890000000000001,3.1837759999999999
12076.0,1.1910000000000001,0.75979999999999992,0.9049218
12130.0,1.198,2.8538999999999999,3.4189721999999998
12186.0,1.2050000000000001,0.34339999999999998,0.41379700000000003
12243.0,1.212,0.1469,0.1780428
12302.0,1.22,2.3853,2.910066
12361.0,1.228,0.032100000000000004,0.039418800000000004
12422.0,1.2350000000000001,2.3403,2.8902705000000002
12484.0,1.242,0.079500000000000001,0.098739000000000007
12549.0,1.2490000000000001,0.21890000000000001,0.27340610000000004
12614.0,1.256,1.788,2.2457280000000002
12680.0,1.264,0.92620000000000002,1.1707168000000001
12749.0,1.2709999999999999,1.7232000000000001,2.1901872
12819.0,1.278,1.5270999999999999,1.9516338
12891.0,1.2849999999999999,1.7287000000000001,2.2213794999999998
12965.0,1.2929999999999999,0.9859,1.2747686999999999
13041.0,1.3,2.3647,3.0741100000000001
13119.0,1.3080000000000001,0.52249999999999996,0.68342999999999998
13198.0,1.3149999999999999,0.34389999999999998,0.45222849999999998
13280.0,1.3220000000000001,2.1915999999999998,2.8972951999999998
13365.0,1.329,0.067099999999999993,0.089175899999999989
13450.0,1.3360000000000001,2.2211999999999996,2.9675231999999996
13537.0,1.343,2.1075999999999997,2.8305067999999993
13626.0,1.3520000000000001,0.058400000000000001,0.078956800000000008
13717.0,1.359,1.9567999999999999,2.6592911999999997
13810.0,1.3660000000000001,0.3125,0.426875
13903.0,1.373,1.6379999999999999,2.248974
13998.0,1.3799999999999999,1.5852999999999999,2.1877139999999997
14095.0,1.3879999999999999,1.3206,1.8329927999999998
14191.0,1.395,1.1302999999999999,1.5767684999999998
14291.0,1.4019999999999999,1.8197000000000001,2.5512193999999999
14390.0,1.4099999999999999,2.3626999999999998,3.3314069999999996
14490.0,1.417,0.4773,0.67633410000000005
14591.0,1.4239999999999999,2.3728000000000002,3.3788672000000002
14691.0,1.4319999999999999,0.18959999999999999,0.27150719999999995
14791.0,1.4390000000000001,2.0377999999999998,2.9323942000000001
14890.0,1.446,0.027399999999999997,0.039620399999999993
14990.0,1.4530000000000001,0.032799999999999996,0.047658399999999997
15087.0,1.46,1.9918,2.9080279999999998
15183.0,1.4670000000000001,0.078200000000000006,0.11471940000000001
15279.0,1.4750000000000001,1.7010999999999998,2.5091224999999997
15373.0,1.4830000000000001,0.48980000000000001,0.72637340000000006
15465.0,1.49,0.82410000000000005,1.2279090000000001
15557.0,1.4970000000000001,1.3809,2.0672073000000002
15646.0,1.504,1.4930999999999999,2.2456223999999998
15734.0,1.5109999999999999,0.99709999999999999,1.5066180999999998
15822.0,1.5189999999999999,2.1158999999999999,3.2140520999999995
15909.0,1.526,2.5356999999999998,3.8694781999999996
15994.0,1.5329999999999999,0.40999999999999998,0.62852999999999992
16077.0,1.54,2.3294999999999999,3.5874299999999999
16158.0,1.5469999999999999,0.15819999999999998,0.24473539999999996
16238.0,1.5549999999999999,2.1173000000000002,3.2924015
16318.0,1.5629999999999999,0.026800000000000001,0.041888399999999999
16396.0,1.5700000000000001,0.037899999999999996,0.059502999999999993
16474.0,1.577,2.0080999999999998,3.1667736999999994
16550.0,1.5840000000000001,0.11890000000000001,0.18833760000000002
16625.0,1.591,1.8029000000000002,2.8684139000000002
16702.0,1.5980000000000001,0.63279999999999992,1.0112143999999998
16776.0,1.6060000000000001,1.0355000000000001,1.6630130000000003
16852.0,1.613,1.3873,2.2377148999999998
16925.0,1.621,1.8465,2.9931765000000001
16999.0,1.6279999999999999,0.98109999999999997,1.5972308
17074.0,1.635,2.2433000000000001,3.6677955
17149.0,1.643,2.3906000000000001,3.9277558000000004
17225.0,1.6499999999999999,0.35999999999999999,0.59399999999999997
17300.0,1.657,2.4375,4.0389375000000003
17377.0,1.6639999999999999,0.105,0.17471999999999999
17453.0,1.671,2.2100999999999997,3.6930770999999996
17530.0,1.6779999999999999,1.9213,3.2239413999999997
17607.0,1.6870000000000001,0.048799999999999996,0.082325599999999999
17686.0,1.694,1.8751,3.1764193999999999
17763.0,1.7010000000000001,0.18430000000000002,0.31349430000000006
17841.0,1.708,1.6187,2.7647396
17919.0,1.7150000000000001,1.5902000000000001,2.7271930000000002
17996.0,1.722,1.2772000000000001,2.1993384000000002
18074.0,1.73,1.2561,2.1730529999999999
18151.0,1.7370000000000001,1.9162999999999999,3.3286131000000001
18228.0,1.744,2.2764000000000002,3.9700416000000005
18305.0,1.752,0.63360000000000005,1.1100672
18382.0,1.7589999999999999,2.6856999999999998,4.7241462999999992
18458.0,1.766,0.28010000000000002,0.49465660000000006
18534.0,1.774,2.2888999999999999,4.0605086000000004
18610.0,1.7809999999999999,2.2980999999999998,4.0929160999999992
18686.0,1.788,0.026600000000000002,0.047560800000000007
18763.0,1.7949999999999999,2.1541000000000001,3.8666095
18839.0,1.802,0.058099999999999999,0.1046962
18918.0,1.8089999999999999,1.7469000000000001,3.1601421000000003
18997.0,1.8180000000000001,1.7815000000000001,3.2387670000000002
19074.0,1.825,0.74260000000000004,1.355245
19152.0,1.8320000000000001,1.2647999999999999,2.3171135999999999
19229.0,1.839,1.2484000000000002,2.2958076000000003
19307.0,1.8460000000000001,1.1342000000000001,2.0937332000000004
19383.0,1.853,0.89349999999999996,1.6556554999999999
19456.0,1.861,2.3743000000000003,4.4185723000000001
19530.0,1.8680000000000001,0.52879999999999994,0.98779839999999997
19602.0,1.875,2.1821999999999999,4.0916249999999996
19673.0,1.8819999999999999,0.23730000000000001,0.44659860000000001
19745.0,1.8899999999999999,2.2526999999999999,4.2576029999999996
19815.0,1.897,2.1406999999999998,4.0609079000000001
19885.0,1.905,0.031399999999999997,0.059816999999999995
19956.0,1.9119999999999999,2.0343,3.8895815999999996
20026.0,1.919,0.076799999999999993,0.14737919999999999
20096.0,1.9259999999999999,1.7664000000000002,3.4020864000000004
20166.0,1.9330000000000001,1.8052000000000001,3.4894516000000002
20237.0,1.9399999999999999,0.83510000000000006,1.6200940000000001
20307.0,1.948,1.4167000000000001,2.7597316000000003
20378.0,1.956,1.3342000000000001,2.6096952
20450.0,1.9630000000000001,1.6442000000000001,3.2275646000000004
20521.0,1.97,0.81820000000000004,1.6118540000000001
20592.0,1.9770000000000001,2.1290999999999998,4.2092307
20664.0,1.9850000000000001,0.41249999999999998,0.81881249999999994
20734.0,1.992,2.1105,4.204116
20804.0,1.9990000000000001,2.1230000000000002,4.2438770000000003
20872.0,2.0059999999999998,0.055899999999999998,0.11213539999999998
20942.0,2.0129999999999999,2.0556999999999999,4.1381240999999997
21010.0,2.0209999999999999,0.034599999999999999,0.069926599999999992
21078.0,2.0289999999999999,1.8209000000000002,3.6946061000000001
21145.0,2.036,0.093900000000000011,0.19118040000000003
21212.0,2.0430000000000001,0.26960000000000001,0.55079280000000008
21278.0,2.0499999999999998,1.4990999999999999,3.0731549999999994
21344.0,2.0569999999999999,1.0132000000000001,2.0841524000000002
21408.0,2.0640000000000001,1.3491,2.7845423999999999
21471.0,2.0720000000000001,1.5775999999999999,3.2687871999999998
21534.0,2.0790000000000002,1.948,4.0498919999999998
21596.0,2.0859999999999999,0.79310000000000003,1.6544065999999999
21659.0,2.0939999999999999,2.6153000000000004,5.4764382000000005
21721.0,2.101,0.42719999999999997,0.89754719999999988
21783.0,2.1080000000000001,2.3536999999999999,4.9615996000000004
21846.0,2.1160000000000001,2.2126999999999999,4.6820731999999996
21908.0,2.1230000000000002,0.036999999999999998,0.07855100000000001
21972.0,2.1299999999999999,2.0070000000000001,4.2749100000000002
22035.0,2.137,0.044700000000000004,0.095523900000000009
22097.0,2.1440000000000001,1.8528,3.9724032
22160.0,2.1509999999999998,1.9365000000000001,4.1654115000000003
22223.0,2.1600000000000001,0.37310000000000004,0.80589600000000017
22285.0,2.1669999999999998,1.8075000000000001,3.9168525000000001
22347.0,2.1739999999999999,1.2027000000000001,2.6146698000000002
22410.0,2.181,1.4813000000000001,3.2307153000000004
22473.0,2.1880000000000002,1.1124000000000001,2.4339312000000004
22536.0,2.1949999999999998,2.0916999999999999,4.5912814999999991
22600.0,2.2029999999999998,0.77390000000000003,1.7049017
22663.0,2.21,2.6248,5.800808
22727.0,2.2170000000000001,0.37439999999999996,0.83004479999999992
22790.0,2.2250000000000001,0.2074,0.46146500000000001
22854.0,2.2320000000000002,2.3155000000000001,5.1681960000000009
22917.0,2.2389999999999999,0.026699999999999998,0.059781299999999996
22980.0,2.2469999999999999,2.2699000000000003,5.1004653000000006
23043.0,2.254,0.051999999999999998,0.11720799999999999
23105.0,2.2610000000000001,0.09459999999999999,0.21389059999999999
23167.0,2.2679999999999998,2.0287000000000002,4.6010916000000002
23231.0,2.2749999999999999,0.57779999999999998,1.314495
23294.0,2.2829999999999999,1.651,3.7692329999999998
23357.0,2.2909999999999999,1.1853,2.7155222999999999
23421.0,2.298,1.6368,3.7613664
23485.0,2.3050000000000002,1.1759999999999999,2.71068
23549.0,2.3119999999999998,2.4988999999999999,5.7774567999999995
23614.0,2.319,0.78289999999999993,1.8155450999999998
23681.0,2.327,0.51119999999999999,1.1895624
23749.0,2.3340000000000001,2.5901999999999998,6.0455268000000002
23817.0,2.3410000000000002,0.182,0.426062
23887.0,2.3479999999999999,2.4083999999999999,5.6549231999999998
23958.0,2.3559999999999999,0.027199999999999998,0.064083199999999993
24029.0,2.363,0.040500000000000001,0.095701500000000009
24103.0,2.371,2.1086,4.9994905999999997
24176.0,2.3780000000000001,0.1147,0.27275660000000002
24249.0,2.3849999999999998,2.032,4.8463199999999995
24324.0,2.3919999999999999,0.70960000000000001,1.6973631999999998
24399.0,2.399,1.0774999999999999,2.5849224999999998
24476.0,2.4060000000000001,1.5727,3.7839162000000002
24552.0,2.4140000000000001,1.734,4.1858760000000004
24630.0,2.4220000000000002,1.0642,2.5774924000000001
24709.0,2.4289999999999998,2.2835999999999999,5.5468643999999996
24787.0,2.4359999999999999,2.7339000000000002,6.6597804000000007
24867.0,2.4430000000000001,0.42660000000000003,1.0421838000000001
24947.0,2.4500000000000002,2.5019999999999998,6.1299000000000001
25030.0,2.4580000000000002,0.1447,0.35567260000000001
25113.0,2.4649999999999999,2.3121,5.6993264999999997
25197.0,2.472,2.3740000000000001,5.8685280000000004
25283.0,2.48,0.041399999999999999,0.102672
25370.0,2.4870000000000001,1.9262000000000001,4.7904594000000005
25458.0,2.4940000000000002,0.1358,0.33868520000000002
25547.0,2.5019999999999998,0.41460000000000002,1.0373292000000001
25638.0,2.5089999999999999,1.6262999999999999,4.0803866999999991
25727.0,2.516,1.0432999999999999,2.6249427999999999
25819.0,2.5230000000000001,1.4298,3.6073854000000001
25912.0,2.5299999999999998,1.7852999999999999,4.5168089999999994
26004.0,2.5369999999999999,2.0217999999999998,5.1293065999999996
26096.0,2.5459999999999998,0.69889999999999997,1.7793993999999997

