encoder,seconds,current (A),charge (C)
2040.0,0.31,0.016,0.00496
2117.0,0.317,1.0035000000000001,0.31810950000000005
2280.0,0.33200000000000002,0.018499999999999999,0.0061419999999999999
2363.0,0.33900000000000002,0.53760000000000008,0.18224640000000003
2445.0,0.34699999999999998,0.026499999999999999,0.0091954999999999988
2612.0,0.36099999999999999,0.065500000000000003,0.0236455
2781.0,0.375,0.10829999999999999,0.040612499999999996
2868.0,0.38200000000000001,0.53339999999999999,0.20375879999999999
2956.0,0.39100000000000001,0.025499999999999998,0.0099705000000000002
3133.0,0.40500000000000003,0.9093,0.3682665
3222.0,0.41199999999999998,0.0132,0.0054383999999999995
3313.0,0.41899999999999998,1.2241,0.51289790000000002
3405.0,0.42599999999999999,0.0132,0.0056232000000000001
3594.0,0.441,1.0914000000000001,0.48130740000000005
3784.0,0.45600000000000002,0.87129999999999996,0.39731280000000002
3879.0,0.46300000000000002,0.017000000000000001,0.0078710000000000013
3975.0,0.46999999999999997,0.62479999999999991,0.29365599999999992
4173.0,0.48499999999999999,0.027,0.013094999999999999
4375.0,0.499,0.076700000000000004,0.038273300000000003
4476.0,0.50600000000000001,0.1424,0.072054400000000005
4577.0,0.51300000000000001,0.074900000000000008,0.038423700000000005
4679.0,0.52200000000000002,0.55829999999999991,0.29143259999999999
4888.0,0.53600000000000003,0.82050000000000001,0.43978800000000001
4992.0,0.54300000000000004,0.0112,0.0060816000000000004
5095.0,0.55000000000000004,0.012,0.0066000000000000008
5305.0,0.56499999999999995,0.012699999999999999,0.0071754999999999987
5521.0,0.57899999999999996,0.013699999999999999,0.007932299999999998
5629.0,0.58699999999999997,0.014199999999999999,0.0083353999999999998
5736.0,0.59399999999999997,0.78739999999999999,0.46771559999999995
5951.0,0.60899999999999999,0.58079999999999998,0.3537072
6062.0,0.61599999999999999,0.022100000000000002,0.0136136
6172.0,0.623,0.030499999999999999,0.019001500000000001
6281.0,0.63,0.26839999999999997,0.16909199999999999
6503.0,0.64500000000000002,0.10199999999999999,0.065790000000000001
6731.0,0.66000000000000003,0.5202,0.34333200000000003
6846.0,0.66700000000000004,0.013699999999999999,0.0091378999999999991
6960.0,0.67400000000000004,0.79859999999999998,0.53825639999999997
7189.0,0.68899999999999995,0.98039999999999994,0.67549559999999986
7422.0,0.70299999999999996,0.012199999999999999,0.0085765999999999985
7540.0,0.70999999999999996,0.99590000000000001,0.70708899999999997
7658.0,0.71799999999999997,0.0135,0.0096930000000000002
7775.0,0.72499999999999998,0.79459999999999997,0.57608499999999996
7894.0,0.73299999999999998,0.71789999999999998,0.52622069999999999
8011.0,0.73999999999999999,0.0155,0.011469999999999999
8128.0,0.747,0.45889999999999997,0.3427983
8246.0,0.754,0.0218,0.016437199999999999
8487.0,0.76800000000000002,0.21280000000000002,0.1634304
8725.0,0.78400000000000003,0.083900000000000002,0.065777600000000006
8845.0,0.79100000000000004,0.41699999999999998,0.329847
8966.0,0.79800000000000004,0.0247,0.019710600000000002
9208.0,0.81200000000000006,0.78070000000000006,0.63392840000000006
9330.0,0.81999999999999995,0.0112,0.0091839999999999995
9452.0,0.82699999999999996,0.9617,0.79532589999999992
9576.0,0.83399999999999996,0.011800000000000001,0.0098412000000000013
9698.0,0.84099999999999997,0.011699999999999999,0.0098396999999999981
9822.0,0.84899999999999998,1.0343,0.87812069999999998
10071.0,0.86399999999999999,0.75079999999999991,0.64869119999999991
10196.0,0.871,0.014800000000000001,0.012890800000000001
10321.0,0.878,0.56559999999999999,0.4965968
10574.0,0.89200000000000002,0.023699999999999999,0.0211404
10830.0,0.90800000000000003,0.059299999999999999,0.053844400000000001
10958.0,0.91500000000000004,0.12590000000000001,0.11519850000000001
11086.0,0.92200000000000004,0.071400000000000005,0.065830800000000009
11345.0,0.93600000000000005,0.017500000000000002,0.016380000000000002
11475.0,0.94399999999999995,0.6593,0.62237919999999991
11735.0,0.95799999999999996,0.010999999999999999,0.010537999999999999
11866.0,0.96499999999999997,0.95950000000000002,0.92591749999999995
11997.0,0.97299999999999998,0.0111,0.010800300000000001
12259.0,0.98799999999999999,0.0124,0.0122512
12392.0,0.995,0.0123,0.012238499999999999
12524.0,1.002,0.71950000000000003,0.720939
12790.0,1.016,0.4849,0.4926584
13056.0,1.0309999999999999,0.30349999999999999,0.31290849999999998
13189.0,1.0389999999999999,0.22719999999999999,0.23606079999999996
13324.0,1.046,0.077700000000000005,0.081274200000000005
13458.0,1.0529999999999999,0.098000000000000004,0.10319399999999999
13594.0,1.0600000000000001,0.3286,0.34831600000000001
13731.0,1.0669999999999999,0.034700000000000002,0.037024899999999999
13866.0,1.075,0.0161,0.0173075
14001.0,1.0820000000000001,0.6855,0.74171100000000001
14268.0,1.0960000000000001,0.86070000000000002,0.94332720000000014
14543.0,1.111,0.0112,0.0124432
14681.0,1.119,0.98109999999999997,1.0978509000000001
14819.0,1.1259999999999999,0.0124,0.013962399999999998
15094.0,1.1399999999999999,0.0134,0.015276
15232.0,1.147,0.013699999999999999,0.015713899999999999
15368.0,1.1539999999999999,0.4204,0.48514159999999995
15506.0,1.1619999999999999,0.0201,0.023356199999999997
15645.0,1.1699999999999999,0.25989999999999996,0.30408299999999994
15785.0,1.177,0.045200000000000004,0.053200400000000009
16064.0,1.1910000000000001,0.082000000000000003,0.097662000000000013
16205.0,1.1990000000000001,0.36480000000000001,0.43739520000000004
16347.0,1.206,0.023399999999999997,0.028220399999999996
16632.0,1.22,0.77210000000000001,0.94196199999999997
16917.0,1.2350000000000001,0.86850000000000005,1.0725975000000001
17058.0,1.2430000000000001,0.0115,0.014294500000000002
17199.0,1.25,0.95599999999999996,1.1949999999999998
17340.0,1.2569999999999999,0.0123,0.015461099999999998
17482.0,1.264,0.011900000000000001,0.0150416
17626.0,1.2709999999999999,0.73950000000000005,0.93990450000000003
17769.0,1.278,0.014,0.017892000000000002
17911.0,1.286,0.5302,0.68183720000000003
18196.0,1.3009999999999999,0.0224,0.029142399999999999
18482.0,1.3149999999999999,0.0596,0.078373999999999999
18626.0,1.3220000000000001,0.1157,0.15295539999999999
18770.0,1.3300000000000001,0.2651,0.35258300000000004
19059.0,1.3440000000000001,0.016800000000000002,0.022579200000000004
19350.0,1.359,0.0104,0.0141336
19501.0,1.3660000000000001,0.010699999999999999,0.014616200000000001
19649.0,1.3740000000000001,0.9477000000000001,1.3021398000000002
19794.0,1.381,0.010800000000000001,0.014914800000000001
20086.0,1.395,0.82329999999999992,1.1485034999999999
20230.0,1.4019999999999999,0.0106,0.0148612
20375.0,1.4099999999999999,0.71860000000000002,1.013226
20671.0,1.425,0.45700000000000002,0.65122500000000005
20959.0,1.4390000000000001,0.026800000000000001,0.038565200000000001
21105.0,1.446,0.2147,0.31045620000000002
21248.0,1.4530000000000001,0.080200000000000007,0.11653060000000001
21549.0,1.4690000000000001,0.0528,0.077563199999999999
21700.0,1.476,0.47670000000000001,0.70360920000000005
21847.0,1.4830000000000001,0.0143,0.021206900000000001
21997.0,1.49,0.0101,0.015049
22146.0,1.4990000000000001,0.746,1.1182540000000001
22291.0,1.506,0.010699999999999999,0.016114199999999999
22592.0,1.52,0.99050000000000005,1.50556
22743.0,1.5269999999999999,0.011599999999999999,0.017713199999999998
22897.0,1.5349999999999999,0.7632000000000001,1.1715120000000001
23199.0,1.55,0.0135,0.020924999999999999
23505.0,1.5649999999999999,0.3604,0.56402600000000003
23659.0,1.5720000000000001,0.020799999999999999,0.0326976
23815.0,1.579,0.23810000000000001,0.37595990000000001
23965.0,1.587,0.1454,0.2307498
24117.0,1.5940000000000001,0.1525,0.243085
24268.0,1.6020000000000001,0.060600000000000001,0.097081200000000006
24426.0,1.609,0.029100000000000001,0.0468219
24583.0,1.6160000000000001,0.503,0.81284800000000001
24891.0,1.6319999999999999,0.0101,0.0164832
25046.0,1.639,0.8042999999999999,1.3182476999999999
25199.0,1.6459999999999999,0.01,0.016459999999999999
25511.0,1.661,0.90260000000000007,1.4992186000000001
25669.0,1.669,0.73070000000000002,1.2195383
25828.0,1.677,0.012,0.020124
25989.0,1.6839999999999999,0.013099999999999999,0.022060399999999997

