encoder,seconds,current (A),charge (C)
2038.0,0.29499999999999998,1.2214,0.36031299999999999
2097.0,0.30099999999999999,2.3613000000000004,0.71075130000000009
2157.0,0.308,2.4476999999999998,0.75389159999999988
2217.0,0.314,0.64790000000000003,0.2034406
2277.0,0.32000000000000001,0.4501,0.14403199999999999
2339.0,0.32800000000000001,2.6244000000000001,0.8608032000000001
2400.0,0.33400000000000002,2.4590000000000001,0.82130600000000009
2461.0,0.34000000000000002,2.3521000000000001,0.79971400000000004
2522.0,0.34699999999999998,0.030499999999999999,0.010583499999999999
2583.0,0.35299999999999998,0.042099999999999999,0.014861299999999999
2645.0,0.35899999999999999,2.0745999999999998,0.74478139999999993
2706.0,0.36599999999999999,2.0811999999999999,0.76171919999999993
2768.0,0.373,0.20419999999999999,0.076166600000000001
2830.0,0.379,0.50990000000000002,0.19325210000000001
2891.0,0.38600000000000001,0.77400000000000002,0.29876400000000003
2952.0,0.39200000000000002,1.7992000000000001,0.70528640000000009
3014.0,0.39800000000000002,1.6456,0.6549488
3076.0,0.40500000000000003,1.7430999999999999,0.70595549999999996
3140.0,0.41099999999999998,1.9832000000000001,0.81509520000000002
3204.0,0.41899999999999998,0.99229999999999996,0.41577369999999997
3270.0,0.42499999999999999,0.78189999999999993,0.33230749999999998
3336.0,0.43099999999999999,2.7061999999999999,1.1663721999999999
3403.0,0.438,2.5836999999999999,1.1316606
3471.0,0.44400000000000001,2.5186999999999999,1.1183027999999999
3540.0,0.45000000000000001,0.12869999999999998,0.057914999999999994
3610.0,0.45800000000000002,0.0499,0.022854200000000002
3680.0,0.46400000000000002,2.1690999999999998,1.0064624
3752.0,0.46999999999999997,2.1058000000000003,0.98972600000000011
3824.0,0.47699999999999998,0.052399999999999995,0.024994799999999998
3897.0,0.48299999999999998,0.085800000000000001,0.041441399999999996
3971.0,0.48899999999999999,0.15709999999999999,0.076821899999999999
4044.0,0.496,1.7549999999999999,0.87047999999999992
4120.0,0.503,1.6695,0.83975849999999996
4196.0,0.50900000000000001,0.97750000000000004,0.49754750000000003
4272.0,0.51600000000000001,1.2514000000000001,0.64572240000000003
4348.0,0.52200000000000002,1.2449000000000001,0.64983780000000013
4426.0,0.52900000000000003,1.0545,0.55783050000000001
4504.0,0.53500000000000003,0.83289999999999997,0.44560150000000004
4584.0,0.54200000000000004,2.4255999999999998,1.3146751999999999
4664.0,0.54900000000000004,2.1825000000000001,1.1981925000000002
4745.0,0.55500000000000005,0.30080000000000001,0.16694400000000001
4826.0,0.56100000000000005,0.19739999999999999,0.1107414
4907.0,0.56799999999999995,2.1145,1.201036
4989.0,0.57399999999999995,2.1378000000000004,1.2270972000000002
5070.0,0.57999999999999996,0.027600000000000003,0.016008000000000001
5152.0,0.58799999999999997,0.033500000000000002,0.019698
5234.0,0.59399999999999997,0.047600000000000003,0.028274400000000002
5316.0,0.59999999999999998,1.6074999999999999,0.96449999999999991
5399.0,0.60699999999999998,1.5735999999999999,0.95517519999999989
5482.0,0.61299999999999999,0.432,0.264816
5565.0,0.61899999999999999,0.6177999999999999,0.38241819999999993
5647.0,0.627,1.2422,0.77885939999999998
5730.0,0.63300000000000001,1.1140000000000001,0.70516200000000007
5811.0,0.63900000000000001,1.0534000000000001,0.67312260000000013
5892.0,0.64600000000000002,1.5483,1.0002018000000001
5974.0,0.65200000000000002,1.8585,1.2117420000000001
6054.0,0.65800000000000003,0.50860000000000005,0.33465880000000003
6134.0,0.66500000000000004,0.37330000000000002,0.24824450000000003
6214.0,0.67200000000000004,0.26739999999999997,0.17969279999999999
6294.0,0.67900000000000005,1.9125000000000001,1.2985875000000002
6374.0,0.68500000000000005,1.9484000000000001,1.3346540000000002
6455.0,0.69099999999999995,0.036799999999999999,0.025428799999999998
6538.0,0.69799999999999995,0.023699999999999999,0.016542599999999998
6622.0,0.70399999999999996,1.5575000000000001,1.0964800000000001
6706.0,0.70999999999999996,1.6670999999999998,1.1836409999999997
6791.0,0.71799999999999997,0.088800000000000004,0.063758400000000007
6875.0,0.72399999999999998,0.15530000000000002,0.11243720000000001
6960.0,0.72999999999999998,0.34379999999999999,0.25097399999999997
7045.0,0.73699999999999999,1.4716,1.0845692
7129.0,0.74299999999999999,1.1199000000000001,0.83208570000000004
7216.0,0.749,1.1579000000000002,0.86726710000000007
7301.0,0.75700000000000001,1.3637000000000001,1.0323209000000002
7388.0,0.76300000000000001,0.70489999999999997,0.5378387
7478.0,0.76900000000000002,0.59560000000000002,0.45801640000000005
7567.0,0.77600000000000002,0.52970000000000006,0.41104720000000006
7658.0,0.78200000000000003,2.0493999999999999,1.6026308
7749.0,0.78900000000000003,2.2281,1.7579709000000001
7842.0,0.79500000000000004,0.15819999999999998,0.12576899999999999
7933.0,0.80200000000000005,0.091999999999999998,0.073784000000000002
8026.0,0.80900000000000005,1.9113,1.5462417000000002
8118.0,0.81499999999999995,1.6419999999999999,1.3382299999999998
8211.0,0.82099999999999995,0.0332,0.027257199999999999
8306.0,0.82799999999999996,0.046299999999999994,0.038336399999999993
8400.0,0.83399999999999996,0.071800000000000003,0.059881200000000002
8496.0,0.84099999999999997,1.4252,1.1985931999999999
8593.0,0.84799999999999998,1.2262,1.0398175999999999
8691.0,0.85399999999999998,0.60389999999999999,0.51573059999999993
8790.0,0.85999999999999999,0.9103,0.78285799999999994
8890.0,0.86699999999999999,0.91370000000000007,0.7921779000000001
8990.0,0.873,0.78029999999999999,0.68120190000000003
9094.0,0.879,1.4015,1.2319184999999999
9198.0,0.88700000000000001,1.6047,1.4233689
9304.0,0.89300000000000002,1.8415999999999999,1.6445487999999999
9408.0,0.90000000000000002,0.26500000000000001,0.23850000000000002
9511.0,0.90600000000000003,0.21099999999999999,0.191166
9613.0,0.91200000000000003,1.7583,1.6035695999999999
9713.0,0.91900000000000004,1.7422,1.6010818
9812.0,0.92600000000000005,1.5668,1.4508567999999999
9911.0,0.93200000000000005,0.024399999999999998,0.022740799999999999
10012.0,0.93899999999999995,0.029499999999999998,0.027700499999999996
10113.0,0.94499999999999995,1.3217999999999999,1.2491009999999998
10215.0,0.95099999999999996,1.2939000000000001,1.2304989
10319.0,0.95799999999999996,0.14230000000000001,0.13632340000000001
10422.0,0.96399999999999997,0.35610000000000003,0.34328040000000004
10525.0,0.97099999999999997,0.5353,0.51977629999999997
10627.0,0.97799999999999998,1.0768,1.0531104
10730.0,0.98399999999999999,0.90660000000000007,0.89209440000000007
10830.0,0.98999999999999999,1.3115999999999999,1.298484
10931.0,0.997,1.5157,1.5111529000000001
11031.0,1.0029999999999999,1.651,1.6559529999999998
11129.0,1.0089999999999999,0.36989999999999995,0.37322909999999992
11226.0,1.0169999999999999,0.34599999999999997,0.35188199999999992
11323.0,1.0229999999999999,2.1368,2.1859463999999997
11418.0,1.0289999999999999,1.8192000000000002,1.8719568
11513.0,1.036,1.9373,2.0070428000000002
11608.0,1.042,0.0349,0.036365800000000004
11700.0,1.048,0.022800000000000001,0.023894400000000003
11792.0,1.056,1.6355,1.727088
11885.0,1.0620000000000001,1.6042000000000001,1.7036604000000002
11977.0,1.0680000000000001,0.073799999999999991,0.078818399999999997
12069.0,1.075,0.13419999999999999,0.14426499999999998
12160.0,1.081,0.3135,0.33889350000000001
12252.0,1.0880000000000001,1.0889000000000002,1.1847232000000003
12346.0,1.0940000000000001,1.0174000000000001,1.1130356000000001
12439.0,1.101,1.1091,1.2211190999999999
12532.0,1.1080000000000001,1.3155999999999999,1.4576848
12626.0,1.1140000000000001,0.72899999999999998,0.81210600000000011
12720.0,1.1200000000000001,0.57750000000000001,0.64680000000000004
12815.0,1.127,0.44369999999999998,0.50004989999999994
12909.0,1.133,2.0388000000000002,2.3099604
13004.0,1.1399999999999999,1.9813000000000001,2.2586819999999999
13098.0,1.147,0.15559999999999999,0.1784732
13195.0,1.153,0.072599999999999998,0.083707799999999999
13290.0,1.159,1.7390000000000001,2.015501
13386.0,1.1659999999999999,1.7812999999999999,2.0769957999999997
13482.0,1.1719999999999999,1.613,1.8904359999999998
13578.0,1.1779999999999999,0.043700000000000003,0.051478599999999999
13674.0,1.1859999999999999,0.069699999999999998,0.082664199999999993
13768.0,1.1919999999999999,1.4455,1.723036
13863.0,1.198,1.3246,1.5868708
13957.0,1.2050000000000001,0.63429999999999997,0.76433150000000005
14052.0,1.2110000000000001,0.85650000000000004,1.0372215
14145.0,1.2170000000000001,1.0774000000000001,1.3111958000000004
14240.0,1.2250000000000001,0.78289999999999993,0.95905249999999997
14334.0,1.2310000000000001,0.75470000000000004,0.92903570000000013
14430.0,1.238,1.7073,2.1136374
14526.0,1.244,1.7912000000000001,2.2282528000000004
14622.0,1.25,0.33260000000000001,0.41575000000000001
14720.0,1.2569999999999999,0.2137,0.2686209
14819.0,1.2629999999999999,1.7470999999999999,2.2065872999999998
14919.0,1.27,1.794,2.2783800000000003
15019.0,1.2769999999999999,1.5532999999999999,1.9835640999999997
15122.0,1.2829999999999999,0.023399999999999997,0.030022199999999995
15224.0,1.2889999999999999,0.0252,0.032482799999999999
15329.0,1.296,1.3608,1.7635968
15434.0,1.302,1.1434000000000002,1.4887068000000003
15539.0,1.3080000000000001,0.1293,0.16912440000000001
15644.0,1.3160000000000001,0.28649999999999998,0.37703399999999998
15747.0,1.3220000000000001,0.52439999999999998,0.69325680000000001
15848.0,1.3280000000000001,0.94229999999999992,1.2513744
15946.0,1.335,0.94440000000000002,1.2607740000000001
16042.0,1.341,1.1910999999999998,1.5972650999999998
16136.0,1.347,1.4465999999999999,1.9485701999999998
16228.0,1.355,1.6750999999999998,2.2697604999999998
16320.0,1.361,0.44880000000000003,0.61081680000000005
16412.0,1.367,0.32930000000000004,0.45015310000000003
16504.0,1.3740000000000001,2.0505999999999998,2.8175243999999999
16597.0,1.3799999999999999,1.9416,2.6794079999999996
16690.0,1.387,0.071400000000000005,0.099031800000000003
16785.0,1.393,0.038799999999999994,0.05404839999999999
16880.0,1.3999999999999999,0.024300000000000002,0.034020000000000002
16976.0,1.407,1.6174999999999999,2.2758224999999999
17074.0,1.413,1.484,2.096892
17173.0,1.419,0.066099999999999992,0.093795899999999988
17274.0,1.4259999999999999,0.115,0.16399
17376.0,1.4319999999999999,1.089,1.5594479999999999
17479.0,1.4390000000000001,1.1340999999999999,1.6319698999999999
17583.0,1.446,0.73180000000000001,1.0581828
17687.0,1.452,1.0514000000000001,1.5266328
17790.0,1.458,1.0923,1.5925734
17894.0,1.4650000000000001,0.68229999999999991,0.99956949999999989
17998.0,1.4710000000000001,0.52479999999999993,0.77198079999999991
18101.0,1.4770000000000001,1.8809,2.7780893
18206.0,1.4850000000000001,2.2773000000000003,3.3817905000000006
18310.0,1.4910000000000001,0.2379,0.35470890000000005
18413.0,1.498,0.17599999999999999,0.26364799999999999
18519.0,1.504,0.10000000000000001,0.15040000000000001
18623.0,1.51,1.863,2.8131300000000001
18728.0,1.5169999999999999,1.7741,2.6913096999999997
18834.0,1.524,0.032199999999999999,0.0490728
18939.0,1.53,0.039200000000000006,0.059976000000000008
19045.0,1.5369999999999999,1.5734000000000001,2.4183158000000002
19151.0,1.5429999999999999,1.5192999999999999,2.3442798999999996
19256.0,1.5489999999999999,1.4987999999999999,2.3216411999999997
19360.0,1.556,0.57529999999999992,0.89516679999999993
19467.0,1.5620000000000001,0.8246,1.2880252000000001
19571.0,1.569,1.0614000000000001,1.6653366000000001
19677.0,1.5760000000000001,1.0324,1.6270624
19783.0,1.5820000000000001,1.5694000000000001,2.4827908000000005
19887.0,1.5880000000000001,1.8142,2.8809496000000001
19991.0,1.595,2.1509999999999998,3.4308449999999997
20096.0,1.601,0.43139999999999995,0.69067139999999994
20198.0,1.6080000000000001,0.32400000000000001,0.52099200000000001
20301.0,1.615,2.0956000000000001,3.3843940000000003
20402.0,1.621,1.9224000000000001,3.1162104000000004
20502.0,1.627,1.883,3.0636410000000001
20603.0,1.6339999999999999,0.027600000000000003,0.045098400000000004
20702.0,1.6399999999999999,0.028300000000000002,0.046412000000000002
20802.0,1.6459999999999999,1.6108,2.6513768
20900.0,1.6539999999999999,1.5806,2.6143123999999998
20998.0,1.6599999999999999,0.12429999999999999,0.20633799999999999
21097.0,1.667,0.27300000000000002,0.45509100000000002
21195.0,1.673,0.52249999999999996,0.87414249999999993
21292.0,1.679,1.2652999999999999,2.1244386999999998
21389.0,1.6859999999999999,1.1465999999999998,1.9331675999999998
21486.0,1.6919999999999999,1.3000999999999998,2.1997691999999995
21581.0,1.6990000000000001,1.5229000000000001,2.5874071000000005
21676.0,1.706,1.7685,3.017061
21771.0,1.712,0.50219999999999998,0.85976639999999993
21865.0,1.718,0.41560000000000002,0.71400079999999999
21960.0,1.7250000000000001,2.1074000000000002,3.6352650000000004
22055.0,1.7310000000000001,1.9402000000000001,3.3584862000000006
22148.0,1.738,0.1061,0.1844018
22243.0,1.7450000000000001,0.056100000000000004,0.097894500000000009
22338.0,1.7509999999999999,1.841,3.2235909999999999
22434.0,1.7569999999999999,1.7948,3.1534635999999998
22531.0,1.764,1.4755999999999998,2.6029583999999995
22627.0,1.77,0.059200000000000003,0.104784
22725.0,1.776,0.10440000000000001,0.18541440000000001
22824.0,1.784,1.1854,2.1147536000000002
22922.0,1.79,1.2612999999999999,2.2577269999999996
23021.0,1.796,0.75679999999999992,1.3592127999999999
23121.0,1.8029999999999999,0.9758,1.7593673999999999
23223.0,1.8089999999999999,1.0831,1.9593278999999999
23323.0,1.8160000000000001,0.65539999999999998,1.1902064000000001
23424.0,1.823,0.55300000000000005,1.008119
23525.0,1.829,1.7349000000000001,3.1731321000000001
23624.0,1.8360000000000001,1.8072999999999999,3.3182027999999999
23721.0,1.8420000000000001,0.25059999999999999,0.46160519999999999
23818.0,1.8480000000000001,0.17510000000000001,0.32358480000000001
23913.0,1.855,0.11170000000000001,0.20720350000000001
24006.0,1.861,1.8976,3.5314335999999997
24099.0,1.8680000000000001,1.762,3.2914160000000003
24189.0,1.875,0.0286,0.053624999999999999
24280.0,1.881,0.035000000000000003,0.065835000000000005
24370.0,1.887,0.058500000000000003,0.1103895
24459.0,1.8939999999999999,1.4952999999999999,2.8320981999999995
24550.0,1.8999999999999999,1.4695,2.7920500000000001
24638.0,1.907,0.47270000000000001,0.90143890000000004
24729.0,1.9139999999999999,0.74579999999999991,1.4274611999999998
24820.0,1.9199999999999999,1.0398000000000001,1.996416
24911.0,1.9259999999999999,0.83499999999999996,1.6082099999999999
25004.0,1.9330000000000001,0.82299999999999995,1.590859
25098.0,1.9390000000000001,1.5584,3.0217376000000002
25192.0,1.9450000000000001,1.7141,3.3339245000000002
25288.0,1.9530000000000001,0.35470000000000002,0.6927291000000001
25383.0,1.9590000000000001,0.27679999999999999,0.54225120000000004
25479.0,1.9650000000000001,2.0421,4.0127265000000003
25573.0,1.972,1.7962,3.5421064000000002
25668.0,1.978,1.7274,3.4167972
25763.0,1.9850000000000001,0.024199999999999999,0.048037000000000003
25857.0,1.992,0.026499999999999999,0.052788000000000002
25952.0,1.998,1.6175999999999999,3.2319647999999996
26046.0,2.0049999999999999,1.4430000000000001,2.8932150000000001
26140.0,2.0110000000000001,0.096500000000000002,0.19406150000000003
26233.0,2.0169999999999999,0.1928,0.38887759999999999
26324.0,2.024,0.42560000000000003,0.86141440000000002
26414.0,2.0299999999999998,1.1220000000000001,2.27766
26504.0,2.0369999999999999,1.0372999999999999,2.1129800999999997
26593.0,2.044,1.1799999999999999,2.4119199999999998
26681.0,2.0499999999999998,1.3654000000000002,2.7990699999999999
26768.0,2.056,0.6522,1.3409232
26856.0,2.0630000000000002,0.50070000000000003,1.0329441000000001
26943.0,2.069,0.44369999999999998,0.91801529999999998
27030.0,2.0750000000000002,2.1292,4.4180900000000003
27118.0,2.0830000000000002,1.8374999999999999,3.8275125000000001
27207.0,2.089,0.13780000000000001,0.28786420000000001
27294.0,2.0950000000000002,0.072599999999999998,0.15209700000000001
27383.0,2.1019999999999999,1.8677000000000001,3.9259054
27473.0,2.1080000000000001,1.7287999999999999,3.6443103999999997
27561.0,2.1139999999999999,1.6540999999999999,3.4967673999999995
27651.0,2.1219999999999999,0.0557,0.11819539999999999
27741.0,2.1280000000000001,0.086400000000000005,0.18385920000000003
27830.0,2.1339999999999999,1.5129999999999999,3.2287419999999996
27921.0,2.141,1.3971,2.9911911
28013.0,2.1469999999999998,0.74450000000000005,1.5984414999999998
28104.0,2.1539999999999999,0.95840000000000003,2.0643935999999998
28195.0,2.1600000000000001,1.1925999999999999,2.5760160000000001
28286.0,2.1669999999999998,0.94950000000000001,2.0575664999999996
28376.0,2.1739999999999999,0.76819999999999999,1.6700667999999999
28465.0,2.1800000000000002,1.9647999999999999,4.283264
28553.0,2.1859999999999999,2.0097999999999998,4.3934227999999997
28642.0,2.1930000000000001,0.39660000000000001,0.86974380000000007
28729.0,2.1989999999999998,0.2266,0.49829339999999994
28814.0,2.206,0.15440000000000001,0.34060640000000003
28902.0,2.2130000000000001,2.0037000000000003,4.434188100000001
28988.0,2.2189999999999999,1.9807000000000001,4.3951732999999997
29073.0,2.2250000000000001,0.030199999999999998,0.067194999999999991
29158.0,2.2320000000000002,0.033799999999999997,0.075441599999999998
29243.0,2.238,1.8310999999999999,4.0980017999999996
29327.0,2.2440000000000002,1.5243,3.4205292000000003
29412.0,2.2519999999999998,1.5281,3.4412811999999997
29496.0,2.258,0.41949999999999998,0.94723099999999993
29580.0,2.2639999999999998,0.65700000000000003,1.4874479999999999
29664.0,2.2709999999999999,1.3424,3.0485904000000001
29749.0,2.2770000000000001,1.087,2.4750990000000002
29835.0,2.2829999999999999,1.4883,3.3977888999999997
29922.0,2.2909999999999999,1.6185,3.7079835000000001
30009.0,2.2970000000000002,1.7363,3.9882811
30096.0,2.3029999999999999,0.50309999999999999,1.1586392999999999
30185.0,2.3100000000000001,0.38550000000000001,0.89050499999999999
30271.0,2.3159999999999998,2.0670999999999999,4.7874035999999993
30361.0,2.323,1.9704999999999999,4.5774714999999997
30450.0,2.3290000000000002,0.072400000000000006,0.16861960000000004
30537.0,2.3359999999999999,0.034799999999999998,0.081292799999999985
30626.0,2.343,0.025600000000000001,0.059980800000000001
30714.0,2.3490000000000002,1.6765999999999999,3.9383333999999999
30802.0,2.355,1.7838000000000001,4.2008489999999998
30890.0,2.3620000000000001,0.078799999999999995,0.1861256
30978.0,2.3679999999999999,0.15040000000000001,0.3561472
31065.0,2.3740000000000001,0.38250000000000001,0.90805500000000006
31151.0,2.3820000000000001,1.2709999999999999,3.0275219999999998
31238.0,2.3879999999999999,1.2224000000000002,2.9190912000000004
31322.0,2.3940000000000001,1.22,2.9206799999999999
31407.0,2.4009999999999998,1.4764999999999999,3.5450764999999995
31492.0,2.407,0.78220000000000001,1.8827554
31577.0,2.4129999999999998,0.69910000000000005,1.6869282999999999
31662.0,2.4209999999999998,0.53989999999999994,1.3070978999999998
31748.0,2.427,2.0591999999999997,4.997678399999999
31836.0,2.4329999999999998,2.0063,4.8813278999999996
31924.0,2.4399999999999999,0.16569999999999999,0.40430799999999995
32013.0,2.4460000000000002,0.098699999999999996,0.2414202
32102.0,2.4529999999999998,1.7598,4.3167894000000002
32192.0,2.4590000000000001,1.7074,4.1984966000000004
32281.0,2.4660000000000002,1.8508,4.5640727999999999
32371.0,2.4729999999999999,0.042900000000000001,0.1060917
32460.0,2.4790000000000001,0.069599999999999995,0.17253839999999998
32550.0,2.4849999999999999,1.3687,3.4012194999999998
32640.0,2.492,1.3765000000000001,3.4302380000000001
32730.0,2.4980000000000002,0.60739999999999994,1.5172851999999999
32823.0,2.5049999999999999,0.79310000000000003,1.9867155000000001
