encoder,seconds,current (A),charge (C)
2048.0,0.28000000000000003,1.6719999999999999,0.46816000000000002
2119.0,0.28799999999999998,1.2378,0.35648639999999998
2191.0,0.29599999999999999,1.0147999999999999,0.30038079999999995
2265.0,0.30299999999999999,2.6966999999999999,0.81710009999999988
2341.0,0.31,0.58310000000000006,0.18076100000000001
2418.0,0.317,2.4866999999999999,0.78828389999999993
2495.0,0.32400000000000001,0.23949999999999999,0.077598
2574.0,0.33200000000000002,0.096599999999999991,0.032071200000000001
2654.0,0.33900000000000002,2.5385999999999997,0.86058539999999994
2735.0,0.34599999999999997,0.034500000000000003,0.011937
2817.0,0.35299999999999998,2.0285000000000002,0.71606049999999999
2899.0,0.36099999999999999,0.073400000000000007,0.026497400000000001
2982.0,0.36799999999999999,0.1484,0.054611199999999999
3064.0,0.376,1.7647999999999999,0.66356479999999995
3148.0,0.38300000000000001,0.66900000000000004,0.25622700000000004
3231.0,0.39000000000000001,1.6288,0.63523200000000002
3315.0,0.39700000000000002,1.3855999999999999,0.55008319999999999
3399.0,0.40400000000000003,1.5572000000000001,0.62910880000000013
3484.0,0.41099999999999998,1.0429999999999999,0.42867299999999997
3570.0,0.41999999999999998,2.2539000000000002,0.94663800000000009
3655.0,0.42699999999999999,0.51149999999999995,0.21841049999999998
3741.0,0.434,2.4308000000000001,1.0549672000000001
3828.0,0.441,2.4996999999999998,1.1023676999999998
3916.0,0.44800000000000001,0.156,0.069888000000000006
4003.0,0.45500000000000002,2.0488000000000004,0.93220400000000025
4091.0,0.46300000000000002,0.026100000000000002,0.012084300000000001
4180.0,0.46999999999999997,0.030800000000000001,0.014475999999999999
4269.0,0.47699999999999998,1.7750999999999999,0.84672269999999994
4360.0,0.48499999999999999,0.074700000000000003,0.036229499999999998
4451.0,0.49199999999999999,1.7174,0.84496079999999996
4543.0,0.499,0.33019999999999999,0.16476979999999999
4636.0,0.50700000000000001,0.68020000000000003,0.34486140000000004
4728.0,0.51400000000000001,1.3112999999999999,0.67400819999999995
4823.0,0.52100000000000002,1.3088,0.68188479999999996
4916.0,0.52800000000000002,1.0877999999999999,0.57435839999999994
5010.0,0.53500000000000003,1.7612000000000001,0.94224200000000013
5106.0,0.54200000000000004,1.9549000000000001,1.0595558
5203.0,0.55100000000000005,0.48360000000000003,0.26646360000000002
5302.0,0.55800000000000005,2.2225000000000001,1.2401550000000001
5402.0,0.56499999999999995,0.2354,0.13300099999999998
5502.0,0.57199999999999995,2.1259999999999999,1.2160719999999998
5603.0,0.57899999999999996,1.9790999999999999,1.1458988999999999
5706.0,0.58699999999999997,0.0264,0.0154968
5808.0,0.59399999999999997,1.9168000000000001,1.1385791999999999
5911.0,0.60099999999999998,0.043400000000000001,0.0260834
6015.0,0.60799999999999998,1.7050999999999998,1.0367008
6118.0,0.61599999999999999,1.4630000000000001,0.90120800000000001
6221.0,0.623,0.34229999999999999,0.2132529
6324.0,0.63100000000000001,1.2535999999999998,0.79102159999999988
6428.0,0.63800000000000001,0.84570000000000001,0.53955660000000005
6530.0,0.64500000000000002,1.1188,0.72162599999999999
6631.0,0.65200000000000002,0.95350000000000001,0.62168200000000007
6731.0,0.65900000000000003,1.6459000000000001,1.0846481000000001
6828.0,0.66600000000000004,0.67679999999999996,0.45074880000000001
6924.0,0.67400000000000004,2.1123000000000003,1.4236902000000002
7019.0,0.68100000000000005,0.3987,0.2715147
7114.0,0.68899999999999995,2.3504,1.6194255999999998
7209.0,0.69599999999999995,2.0913000000000004,1.4555448000000002
7303.0,0.70299999999999996,0.062799999999999995,0.04414839999999999
7397.0,0.70999999999999996,1.9042999999999999,1.3520529999999999
7492.0,0.71799999999999997,0.031699999999999999,0.022760599999999999
7587.0,0.72499999999999998,1.635,1.1853750000000001
7681.0,0.73199999999999998,1.7304999999999999,1.266726
7776.0,0.73899999999999999,0.14909999999999998,0.11018489999999999
7870.0,0.746,1.4762999999999999,1.1013198
7964.0,0.754,0.67389999999999994,0.50812059999999992
8056.0,0.76200000000000001,1.3365,1.018413
8148.0,0.76900000000000002,1.2666999999999999,0.97409230000000002
8238.0,0.77600000000000002,1.6025,1.2435400000000001
8328.0,0.78300000000000003,0.84229999999999994,0.65952089999999997
8415.0,0.79000000000000004,2.0639000000000003,1.6304810000000003
8503.0,0.79700000000000004,0.64449999999999996,0.51366650000000003
8590.0,0.80500000000000005,0.37880000000000003,0.30493400000000004
8677.0,0.81200000000000006,2.3028000000000004,1.8698736000000005
8764.0,0.81999999999999995,0.16919999999999999,0.13874399999999998
8850.0,0.82699999999999996,2.0779999999999998,1.7185059999999999
8937.0,0.83399999999999996,0.0252,0.021016799999999999
9024.0,0.84099999999999997,2.0135000000000001,1.6933535
9113.0,0.84899999999999998,2.0367999999999999,1.7292432
9203.0,0.85599999999999998,0.074499999999999997,0.063771999999999995
9293.0,0.86299999999999999,1.7717000000000001,1.5289771000000001
9386.0,0.87,0.38389999999999996,0.33399299999999998
9479.0,0.877,0.76170000000000004,0.66801090000000007
9574.0,0.88600000000000001,1.3432999999999999,1.1901637999999999
9668.0,0.89300000000000002,1.2578,1.1232154000000001
9764.0,0.90000000000000002,1.0372999999999999,0.9335699999999999
9861.0,0.90700000000000003,1.6795,1.5233065000000001
9957.0,0.91400000000000003,2.0410999999999997,1.8655653999999997
10054.0,0.92100000000000004,0.53439999999999999,0.49218240000000002
10150.0,0.92900000000000005,2.3928000000000003,2.2229112000000004
10246.0,0.93600000000000005,0.26180000000000003,0.24504480000000003
10342.0,0.94299999999999995,2.1386999999999996,2.0167940999999994
10438.0,0.95099999999999996,0.062200000000000005,0.059152200000000002
10533.0,0.95799999999999996,0.025999999999999999,0.024908
10628.0,0.96499999999999997,1.8437999999999999,1.7792669999999999
10723.0,0.97299999999999998,0.0458,0.044563399999999996
10817.0,0.97999999999999998,1.7169000000000001,1.6825620000000001
10911.0,0.98699999999999999,0.1404,0.1385748
11006.0,0.99399999999999999,0.39250000000000002,0.39014500000000002
11101.0,1.0009999999999999,1.4132,1.4146131999999998
11197.0,1.008,0.96799999999999997,0.97574399999999994
11296.0,1.0169999999999999,1.1769000000000001,1.1969072999999999
11395.0,1.024,1.5030999999999999,1.5391743999999998
11496.0,1.0309999999999999,1.7133,1.7664122999999998
11599.0,1.038,0.51539999999999997,0.53498519999999994
11702.0,1.0449999999999999,1.9875999999999998,2.0770419999999996
11808.0,1.052,0.28449999999999998,0.299294
11915.0,1.0600000000000001,1.9084000000000001,2.022904
12022.0,1.0669999999999999,1.7535999999999998,1.8710911999999997
12131.0,1.075,0.043900000000000002,0.047192499999999998
12242.0,1.0820000000000001,1.6439000000000001,1.7786998000000003
12353.0,1.089,0.0293,0.031907699999999997
12465.0,1.0960000000000001,1.5055999999999998,1.6501375999999999
12576.0,1.1040000000000001,1.2968,1.4316672000000001
12686.0,1.111,0.14899999999999999,0.16553899999999999
12796.0,1.1180000000000001,1.2158,1.3592644
12905.0,1.125,0.56789999999999996,0.63888749999999994
13014.0,1.1319999999999999,0.88790000000000002,1.0051028
13122.0,1.139,0.94540000000000002,1.0768106
13230.0,1.1479999999999999,1.3244,1.5204111999999999
13338.0,1.155,0.60909999999999997,0.70351050000000004
13445.0,1.1619999999999999,1.8349000000000002,2.1321538000000002
13552.0,1.169,0.41460000000000002,0.48466740000000003
13658.0,1.1759999999999999,0.26039999999999996,0.30623039999999996
13763.0,1.1839999999999999,1.8420000000000001,2.1809280000000002
13869.0,1.1910000000000001,0.087300000000000003,0.10397430000000001
13974.0,1.198,1.8277000000000001,2.1895845999999999
14080.0,1.2050000000000001,0.025600000000000001,0.030848000000000004
14187.0,1.2130000000000001,0.030499999999999999,0.036996500000000002
14292.0,1.22,1.5912999999999999,1.9413859999999998
14397.0,1.228,0.068400000000000002,0.083995200000000006
14504.0,1.2350000000000001,1.2867999999999999,1.5891980000000001
14608.0,1.242,0.35210000000000002,0.43730820000000004
14712.0,1.2490000000000001,1.2098,1.5110402000000001
14815.0,1.256,1.0303,1.2940567999999999
14918.0,1.2629999999999999,1.2061999999999999,1.5234305999999997
15020.0,1.2709999999999999,0.73570000000000002,0.93507469999999993
15120.0,1.278,1.649,2.1074220000000001
15220.0,1.286,0.50719999999999998,0.65225920000000004
15319.0,1.2929999999999999,0.41410000000000002,0.53543130000000005
15420.0,1.3,1.8069000000000002,2.3489700000000004
15520.0,1.3069999999999999,0.17599999999999999,0.23003199999999999
15621.0,1.3149999999999999,1.9136,2.516384
15723.0,1.3220000000000001,0.042799999999999998,0.056581600000000003
15823.0,1.329,0.024399999999999998,0.032427599999999994
15924.0,1.3360000000000001,1.5532000000000001,2.0750752000000001
16025.0,1.3440000000000001,0.044400000000000002,0.059673600000000007
16127.0,1.351,1.4262999999999999,1.9269312999999999
16229.0,1.359,0.13819999999999999,0.18781379999999998
16332.0,1.3660000000000001,0.41949999999999998,0.57303700000000002
16436.0,1.373,1.0968,1.5059064
16541.0,1.3799999999999999,0.84739999999999993,1.1694119999999999
16649.0,1.387,0.72399999999999998,1.0041880000000001
16759.0,1.3939999999999999,0.6089,0.84880659999999997
16869.0,1.4019999999999999,1.5303,2.1454806
16983.0,1.4099999999999999,0.3266,0.46050599999999997
17097.0,1.417,1.7224999999999999,2.4407825000000001
17212.0,1.4239999999999999,0.1799,0.25617760000000001
17330.0,1.431,0.090900000000000009,0.13007790000000002
17445.0,1.4379999999999999,1.7507999999999999,2.5176504
17561.0,1.446,0.028199999999999999,0.0407772
17677.0,1.4530000000000001,1.4079999999999999,2.0458240000000001
17793.0,1.46,0.0287,0.041902000000000002
17909.0,1.4670000000000001,0.0441,0.064694700000000008
18024.0,1.4750000000000001,1.1792,1.7393200000000002
18139.0,1.4830000000000001,0.1502,0.22274660000000002
18256.0,1.49,1.0577000000000001,1.5759730000000001
18373.0,1.4970000000000001,0.60270000000000001,0.90224190000000004
18489.0,1.504,0.87629999999999997,1.3179551999999999
18606.0,1.5109999999999999,0.75600000000000001,1.1423159999999999
18723.0,1.518,1.2587000000000002,1.9107066000000001
18840.0,1.526,0.56189999999999996,0.85745939999999998
18956.0,1.5329999999999999,1.7307000000000001,2.6531631
19072.0,1.5409999999999999,0.25610000000000005,0.39465010000000006
19188.0,1.548,0.19159999999999999,0.29659679999999999
19304.0,1.5549999999999999,1.8103,2.8150165
19418.0,1.5620000000000001,0.070800000000000002,0.11058960000000001
19533.0,1.5700000000000001,1.8035999999999999,2.8316520000000001
19650.0,1.577,0.024300000000000002,0.038321100000000004
19769.0,1.5840000000000001,0.033299999999999996,0.052747199999999994
19888.0,1.591,1.2615999999999998,2.0072055999999998
20007.0,1.5980000000000001,0.076299999999999993,0.12192739999999999
20127.0,1.6060000000000001,1.3328,2.1404768000000001
20246.0,1.6140000000000001,0.38980000000000004,0.62913720000000006
20364.0,1.621,0.63949999999999996,1.0366294999999999
20482.0,1.6279999999999999,0.80000000000000004,1.3024
20600.0,1.635,1.1284000000000001,1.8449340000000001
20717.0,1.6419999999999999,0.64549999999999996,1.0599109999999998
20833.0,1.649,1.5325,2.5270925000000002
20951.0,1.657,1.8407,3.0500399000000002
21069.0,1.6639999999999999,0.29469999999999996,0.49038079999999989
21187.0,1.6719999999999999,1.6884999999999999,2.8231719999999996
21307.0,1.679,0.1023,0.17176170000000002
21426.0,1.6859999999999999,1.6253,2.7402557999999999
21546.0,1.6930000000000001,1.5172000000000001,2.5686196000000003
21668.0,1.7010000000000001,0.0241,0.040994099999999999
21789.0,1.708,1.4214,2.4277511999999999
21912.0,1.7150000000000001,0.0448,0.076831999999999998
22035.0,1.722,0.086099999999999996,0.14826419999999998
22158.0,1.7290000000000001,1.0480999999999998,1.8121648999999997
22280.0,1.7370000000000001,0.40939999999999999,0.71112779999999998
22404.0,1.7450000000000001,0.92489999999999994,1.6139505000000001
22529.0,1.752,0.88919999999999999,1.5578783999999999
22653.0,1.7589999999999999,0.77649999999999997,1.3658634999999999
22777.0,1.766,0.56729999999999992,1.0018517999999998
22898.0,1.7729999999999999,1.5682,2.7804186
23019.0,1.7809999999999999,0.4047,0.72077069999999999
23138.0,1.788,1.8172999999999999,3.2493324000000001
23255.0,1.7949999999999999,0.21180000000000002,0.38018099999999999
23374.0,1.802,0.128,0.230656
23489.0,1.8100000000000001,1.7261,3.124241
23605.0,1.8169999999999999,0.029999999999999999,0.054509999999999996
23720.0,1.825,1.5548,2.83751
23835.0,1.8320000000000001,0.033100000000000004,0.060639200000000011
23950.0,1.839,0.0545,0.1002255
24064.0,1.8460000000000001,1.3442000000000001,2.4813932000000003
24179.0,1.853,0.2316,0.4291548
24294.0,1.8600000000000001,1.1382000000000001,2.1170520000000002
24408.0,1.8680000000000001,0.72399999999999998,1.3524320000000001
24522.0,1.8759999999999999,1.0287999999999999,1.9300287999999999
24636.0,1.883,0.9103,1.7140949000000001
24750.0,1.8899999999999999,1.5092999999999999,2.8525769999999997
24866.0,1.897,0.57510000000000006,1.0909647
24984.0,1.9039999999999999,1.8427,3.5085007999999998
25101.0,1.9119999999999999,1.9882,3.8014383999999999
25219.0,1.919,0.18530000000000002,0.35559070000000004
25337.0,1.9259999999999999,1.5675999999999999,3.0191975999999996
25454.0,1.9330000000000001,0.066799999999999998,0.1291244
25572.0,1.9410000000000001,1.5954999999999999,3.0968654999999998
25688.0,1.948,1.5089999999999999,2.9395319999999998
25804.0,1.956,0.035200000000000002,0.068851200000000001
25920.0,1.9630000000000001,1.5127999999999999,2.9696264000000001
26035.0,1.97,0.08929999999999999,0.17592099999999997
26152.0,1.9770000000000001,1.1359000000000001,2.2456743000000006
26267.0,1.984,0.4637,0.91998080000000004
26382.0,1.9910000000000001,0.73450000000000004,1.4623895000000002
26497.0,1.9990000000000001,0.89479999999999993,1.7887051999999999
26612.0,2.0070000000000001,1.2835999999999999,2.5761851999999998
26728.0,2.0139999999999998,0.66089999999999993,1.3310525999999998
26843.0,2.0209999999999999,1.6252,3.2845291999999997
26958.0,2.028,1.8944000000000001,3.8418432
27073.0,2.0350000000000001,0.31380000000000002,0.63858300000000012
27186.0,2.0430000000000001,1.8327,3.7442061000000004
27300.0,2.0499999999999998,0.13100000000000001,0.26855000000000001
27414.0,2.0569999999999999,1.73,3.5586099999999998
27528.0,2.0640000000000001,1.6902000000000001,3.4885728000000005
27643.0,2.0720000000000001,0.0253,0.052421599999999999
27758.0,2.0800000000000001,1.3757999999999999,2.8616639999999998
27874.0,2.0870000000000002,0.050099999999999999,0.1045587
27991.0,2.0939999999999999,1.2464000000000002,2.6099616000000001
28108.0,2.101,1.1049,2.3213949
28223.0,2.1080000000000001,0.5232,1.1029056000000002
28338.0,2.1150000000000002,1.0265,2.1710475000000002
28451.0,2.1230000000000002,0.97809999999999997,2.0765063000000001
28563.0,2.1299999999999999,0.80989999999999995,1.7250869999999998
28673.0,2.137,0.64560000000000006,1.3796472000000002
28781.0,2.145,1.8406,3.9480870000000001
28888.0,2.1520000000000001,0.46700000000000003,1.0049840000000001
28994.0,2.1589999999999998,2.2235,4.8005364999999998
29099.0,2.1669999999999998,0.23699999999999999,0.5135789999999999
29204.0,2.1739999999999999,1.8549,4.0325525999999998
29309.0,2.181,1.8999000000000001,4.1436819000000007
29414.0,2.1880000000000002,0.0287,0.062795600000000007
29518.0,2.1949999999999998,1.5115999999999998,3.3179619999999992
29623.0,2.202,0.039,0.085877999999999996
29728.0,2.2109999999999999,1.4077,3.1124246999999996
29832.0,2.218,1.3194999999999999,2.9266509999999997
29936.0,2.2250000000000001,0.25459999999999999,0.56648500000000002
30040.0,2.2320000000000002,1.0855999999999999,2.4230592
30142.0,2.2389999999999999,0.81079999999999997,1.8153811999999998
30244.0,2.246,1.0412000000000001,2.3385352000000004
30343.0,2.254,1.4202999999999999,3.2013561999999998
30442.0,2.2610000000000001,1.5360999999999998,3.4731220999999999
30539.0,2.2679999999999998,0.55879999999999996,1.2673583999999998
30637.0,2.2749999999999999,1.9344000000000001,4.40076
30734.0,2.2829999999999999,0.35860000000000003,0.81868380000000007
30831.0,2.29,1.7487000000000001,4.0045230000000007
30930.0,2.298,1.7920999999999998,4.1182457999999995
31028.0,2.3050000000000002,0.059299999999999999,0.13668650000000002
31127.0,2.3119999999999998,1.8152000000000001,4.1967423999999998
31226.0,2.319,0.025999999999999999,0.060293999999999993
31326.0,2.3260000000000001,1.4875999999999998,3.4601575999999996
31427.0,2.3330000000000002,1.3347,3.1138551000000003
31528.0,2.3410000000000002,0.1047,0.24510270000000003
31630.0,2.3490000000000002,1.2837000000000001,3.0154113000000002
31732.0,2.3559999999999999,0.4869,1.1471363999999999
31835.0,2.363,1.1275999999999999,2.6645187999999997
31938.0,2.3700000000000001,0.89839999999999998,2.1292080000000002
32041.0,2.3769999999999998,1.1094000000000002,2.6370438000000003
32144.0,2.3849999999999998,0.66789999999999994,1.5929414999999998
32249.0,2.3919999999999999,1.6982999999999999,4.0623335999999997
32354.0,2.399,1.7785,4.2666215000000003
32459.0,2.4060000000000001,0.25359999999999999,0.61016159999999997
32566.0,2.4140000000000001,1.9577,4.7258878000000006
32671.0,2.4220000000000002,0.123,0.297906
32775.0,2.4289999999999998,1.6525999999999998,4.0141653999999996
32879.0,2.4359999999999999,0.025100000000000001,0.061143599999999999
32981.0,2.4430000000000001,0.029100000000000001,0.07109130000000001
33082.0,2.4500000000000002,1.6815,4.119675
33181.0,2.4569999999999999,0.0591,0.1452087
33280.0,2.4649999999999999,1.4476,3.5683339999999997
33378.0,2.472,0.29680000000000001,0.73368960000000005
33476.0,2.48,0.58289999999999997,1.445592
33574.0,2.4870000000000001,1.0292000000000001,2.5596204000000005
33674.0,2.4940000000000002,1.0028999999999999,2.5012325999999998
33773.0,2.5009999999999999,0.79320000000000002,1.9837932
33871.0,2.5089999999999999,1.4427000000000001,3.6197343000000002
33969.0,2.516,1.7692000000000001,4.4513072000000005

